YearsCodePro_n,YearsCode_n,WorkExp_n,EdLevel_n,OrgSize_n,Remote_n,Country_n,DevType_n,lang_count,lang_Python,lang_JavaScript,lang_TypeScript,lang_SQL,lang_Java,lang_CSharp,lang_CPlusPlus,lang_PHP,lang_Go,lang_Rust,IsFullTime,ConvertedCompYearly
33.0,36.0,35.0,6.0,6.0,0.0,6,1.0,6,0,0,0,1,1,0,1,0,0,1,0,147496.0
22.0,34.0,10.0,3.0,5.0,1.0,6,0.0,6,0,1,0,1,1,0,0,0,0,1,1,59150.0
4.0,8.0,10.0,5.0,4.0,1.0,6,1.0,5,1,0,0,1,0,1,1,1,0,0,1,30074.0
12.0,13.0,12.0,5.0,5.0,1.0,6,0.0,4,0,1,0,1,0,0,0,1,0,0,1,54239.0
8.0,3.0,10.0,5.0,9.0,1.0,10,10.0,7,1,0,1,0,0,0,0,0,0,1,1,85000.0
7.0,8.0,10.0,6.0,5.0,2.0,4,0.0,4,0,1,0,0,0,0,0,1,0,0,1,14356.0
26.0,41.0,10.0,5.0,9.0,1.0,1,2.0,3,0,1,1,1,0,0,0,0,0,0,1,135936.0
6.0,8.0,10.0,4.0,3.0,0.0,0,2.0,3,0,1,0,0,1,0,0,1,0,0,1,17903.0
4.0,5.0,10.0,5.0,2.0,0.0,6,10.0,2,0,0,0,0,1,0,0,0,0,1,0,51518.0
2.0,3.0,2.0,5.0,3.0,2.0,6,1.0,1,0,0,0,0,0,1,0,0,0,0,1,17129.0
1.0,3.0,1.0,3.0,2.0,1.0,6,0.0,5,0,1,1,1,0,0,0,0,0,0,1,24715.0
4.0,7.0,10.0,6.0,7.0,1.0,6,0.0,7,1,1,1,1,1,1,0,0,0,0,1,53703.0
10.0,14.0,10.0,6.0,2.0,0.0,2,0.0,6,0,1,1,0,0,0,0,1,1,0,0,53703.0
2.0,2.0,3.0,6.0,5.0,2.0,6,10.0,6,1,1,0,1,0,0,0,0,0,0,1,23629.0
2.0,7.0,10.0,5.0,6.0,2.0,4,1.0,1,0,0,0,0,0,0,0,0,1,0,1,35292.0
5.0,10.0,5.0,6.0,4.0,1.0,6,0.0,9,1,1,0,0,1,0,0,0,0,0,1,69814.0
7.0,8.0,10.0,5.0,4.0,1.0,10,10.0,8,1,1,0,1,0,1,0,0,0,0,1,100000.0
0.0,6.0,10.0,5.0,4.0,1.0,6,7.0,3,0,0,0,0,1,0,1,0,0,0,1,33296.0
15.0,20.0,15.0,5.0,6.0,0.0,6,0.0,3,1,1,1,0,0,0,0,0,0,0,1,69814.0
12.0,18.0,12.0,5.0,4.0,0.0,6,1.0,1,0,0,0,0,0,1,0,0,0,0,1,51507.0
6.0,10.0,6.0,5.0,5.0,1.0,6,0.0,11,1,1,1,1,1,1,0,0,1,1,1,48916.0
21.0,27.0,10.0,6.0,5.0,0.0,9,0.0,1,0,0,0,0,0,0,0,0,0,0,1,118471.0
14.0,25.0,14.0,7.0,7.0,1.0,3,0.0,6,0,1,1,1,0,1,0,0,0,0,1,89147.0
8.0,19.0,10.0,5.0,7.0,1.0,6,0.0,6,0,1,0,1,0,0,0,0,0,0,0,32544.0
9.0,13.0,10.0,6.0,4.0,0.0,6,2.0,5,1,1,1,1,0,0,0,0,0,0,1,32345.0
11.0,16.0,13.0,6.0,5.0,0.0,6,3.0,2,1,0,0,1,0,0,0,0,0,0,1,49407.0
4.0,8.0,4.0,6.0,5.0,1.0,2,0.0,3,0,1,1,0,1,0,0,0,0,0,1,42962.0
4.0,6.0,10.0,5.0,1.0,1.0,3,7.0,9,1,1,0,1,1,1,1,0,0,0,0,236294.0
14.0,19.0,10.0,6.0,4.0,1.0,2,1.0,3,0,1,0,1,1,0,0,0,0,0,0,112777.0
35.0,40.0,36.0,2.0,3.0,0.0,6,2.0,4,0,1,1,0,0,0,0,0,0,0,1,66769.0
17.0,22.0,17.0,6.0,5.0,2.0,6,1.0,1,0,0,0,0,0,0,0,0,0,0,1,110974.0
14.0,18.0,10.0,5.0,1.0,0.0,6,0.0,13,1,1,1,1,1,0,1,1,1,0,0,64444.0
8.0,12.0,8.0,5.0,4.0,1.0,1,0.0,3,1,1,1,0,0,0,0,0,0,0,1,105405.0
3.0,10.0,3.0,6.0,7.0,1.0,6,1.0,6,1,1,1,1,0,0,0,1,0,0,1,81461.0
2.0,8.0,3.0,5.0,5.0,0.0,8,10.0,7,0,0,0,1,0,1,1,0,1,0,1,23697.0
11.0,20.0,11.0,5.0,2.0,0.0,10,0.0,5,0,1,0,0,1,0,0,0,0,0,1,120000.0
9.0,14.0,14.0,5.0,9.0,0.0,10,0.0,5,0,1,1,1,1,0,0,0,0,0,1,128000.0
32.0,35.0,33.0,5.0,5.0,2.0,6,1.0,5,0,1,0,1,0,0,0,1,0,0,0,39640.0
6.0,9.0,6.0,6.0,6.0,0.0,8,9.0,5,1,1,0,1,0,0,1,0,0,0,1,48000.0
17.0,25.0,10.0,6.0,1.0,1.0,6,8.0,5,1,1,0,1,0,1,0,0,0,0,0,153755.0
8.0,12.0,12.0,6.0,8.0,0.0,6,9.0,10,1,0,0,0,1,0,1,0,0,0,1,72284.0
8.0,15.0,8.0,6.0,9.0,0.0,10,1.0,1,0,0,0,0,0,0,0,0,0,1,1,400000.0
17.0,24.0,30.0,5.0,5.0,1.0,6,0.0,7,1,1,1,1,0,1,0,0,0,0,1,86654.0
1.0,4.0,10.0,5.0,5.0,1.0,3,0.0,7,1,1,1,1,1,0,1,0,0,0,1,15466.0
3.0,13.0,3.0,6.0,7.0,1.0,3,9.0,4,1,1,0,0,0,0,1,0,0,1,1,63370.0
36.0,38.0,10.0,6.0,4.0,1.0,10,1.0,3,0,0,0,1,1,0,0,0,0,0,1,200000.0
3.0,9.0,12.0,5.0,6.0,2.0,6,9.0,3,0,0,0,0,0,1,1,0,0,0,1,105846.0
8.0,12.0,10.0,5.0,5.0,0.0,10,10.0,3,0,1,0,0,0,1,1,0,0,0,1,120000.0
9.0,11.0,10.0,5.0,7.0,0.0,10,0.0,5,0,1,0,1,0,1,0,0,0,0,1,125000.0
6.0,16.0,6.0,3.0,5.0,2.0,3,0.0,3,1,0,0,1,0,1,0,0,0,0,1,55851.0
2.0,10.0,10.0,2.0,3.0,1.0,6,0.0,9,0,1,1,1,1,0,0,0,0,1,1,21404.0
2.0,6.0,2.0,5.0,2.0,0.0,10,2.0,5,0,1,1,1,0,0,0,1,0,0,0,40000.0
3.0,9.0,3.0,5.0,7.0,1.0,6,0.0,9,0,1,0,0,1,0,0,0,1,1,0,32757.0
25.0,25.0,10.0,6.0,2.0,0.0,9,0.0,11,1,1,1,1,1,1,0,1,0,0,1,59872.0
51.0,51.0,10.0,3.0,1.0,0.0,0,8.0,3,0,0,0,0,0,1,0,0,0,0,0,18649.0
15.0,25.0,17.0,5.0,3.0,0.0,6,0.0,6,1,1,0,0,1,0,0,1,0,0,0,70888.0
18.0,25.0,18.0,5.0,4.0,1.0,6,2.0,4,0,1,1,0,0,1,0,0,0,0,1,93591.0
13.0,17.0,13.0,7.0,4.0,1.0,10,10.0,4,1,0,0,0,0,0,1,0,0,0,1,113000.0
15.0,18.0,18.0,6.0,3.0,2.0,6,1.0,3,0,0,0,0,0,1,0,0,0,0,1,43435.0
7.0,14.0,8.0,5.0,2.0,2.0,10,10.0,1,0,0,0,0,0,1,0,0,0,0,1,82000.0
3.0,9.0,3.0,5.0,9.0,2.0,10,0.0,5,0,1,1,1,0,1,0,0,0,0,1,163000.0
6.0,6.0,15.0,6.0,8.0,0.0,7,10.0,5,1,1,0,1,0,0,0,0,0,0,1,70888.0
5.0,7.0,10.0,6.0,5.0,1.0,6,0.0,3,0,1,0,1,0,0,0,1,0,0,1,22409.0
3.0,7.0,3.0,6.0,7.0,1.0,2,3.0,5,1,1,1,1,0,0,0,0,0,0,1,50481.0
14.0,22.0,10.0,5.0,9.0,2.0,6,0.0,3,0,1,0,0,0,0,0,0,0,0,1,93591.0
8.0,15.0,10.0,5.0,9.0,0.0,3,1.0,13,1,1,1,0,1,0,0,0,1,0,1,64444.0
11.0,15.0,15.0,5.0,4.0,1.0,6,10.0,11,1,1,1,1,0,1,1,0,1,0,1,266096.0
11.0,11.0,10.0,5.0,4.0,1.0,6,0.0,5,1,1,1,0,0,0,0,1,0,0,1,60577.0
27.0,26.0,10.0,5.0,1.0,0.0,7,1.0,3,0,0,0,1,0,0,0,0,0,0,0,51555.0
8.0,11.0,8.0,5.0,5.0,0.0,3,0.0,4,1,1,1,0,0,0,0,0,0,1,1,60147.0
6.0,12.0,6.0,5.0,4.0,2.0,6,1.0,2,0,0,0,0,0,0,0,1,0,0,1,16807.0
1.0,7.0,1.0,3.0,4.0,1.0,5,0.0,2,0,1,1,0,0,0,0,0,0,0,1,48333.0
7.0,23.0,7.0,7.0,2.0,2.0,6,10.0,4,0,0,0,0,0,0,0,0,0,1,1,57601.0
3.0,6.0,10.0,5.0,3.0,2.0,3,0.0,3,0,0,0,1,0,1,1,0,0,0,0,25777.0
24.0,28.0,10.0,6.0,1.0,0.0,6,1.0,2,0,1,0,0,0,0,0,0,0,0,0,60000.0
25.0,32.0,30.0,5.0,2.0,1.0,7,8.0,1,0,0,0,0,0,0,0,0,0,0,0,42962.0
5.0,9.0,6.0,3.0,6.0,1.0,3,0.0,7,0,0,1,1,0,0,1,0,0,1,1,68310.0
6.0,8.0,6.0,5.0,2.0,2.0,6,0.0,9,0,1,1,1,1,0,0,1,1,0,1,36608.0
4.0,7.0,4.0,4.0,4.0,2.0,1,0.0,3,0,0,1,1,0,0,0,0,0,0,1,72693.0
18.0,25.0,18.0,3.0,4.0,2.0,6,7.0,7,1,0,0,0,1,0,0,0,0,0,1,69951.0
18.0,22.0,10.0,5.0,4.0,1.0,10,8.0,8,0,1,1,1,0,1,1,0,0,0,1,136000.0
13.0,19.0,13.0,5.0,7.0,0.0,10,8.0,11,1,1,1,1,1,0,0,1,0,0,1,94000.0
7.0,20.0,7.0,6.0,9.0,0.0,6,1.0,2,0,0,0,1,1,0,0,0,0,0,1,46607.0
2.0,10.0,10.0,3.0,2.0,2.0,6,10.0,4,0,1,0,0,0,1,0,0,0,0,1,42943.0
16.0,21.0,16.0,6.0,7.0,0.0,6,1.0,1,0,0,0,0,1,0,0,0,0,0,1,77951.0
2.0,4.0,10.0,4.0,2.0,2.0,10,2.0,3,0,1,0,0,0,0,0,1,0,0,1,52000.0
8.0,14.0,7.0,6.0,4.0,1.0,7,3.0,6,1,1,0,0,1,0,1,0,0,0,1,21481.0
10.0,14.0,10.0,6.0,5.0,1.0,6,2.0,3,0,0,0,1,0,1,0,0,0,0,1,54294.0
5.0,16.0,10.0,2.0,6.0,1.0,6,5.0,6,1,1,0,1,0,0,0,0,0,0,1,83651.0
8.0,12.0,10.0,6.0,3.0,1.0,2,1.0,2,0,1,0,0,0,0,0,0,0,0,1,69814.0
20.0,30.0,10.0,4.0,5.0,1.0,3,1.0,3,0,1,0,1,0,1,0,0,0,0,1,85925.0
17.0,21.0,21.0,5.0,7.0,1.0,7,1.0,4,0,0,0,1,1,0,0,1,0,0,1,76258.0
12.0,12.0,10.0,5.0,7.0,1.0,10,6.0,5,1,1,1,0,1,0,0,0,0,0,1,302409.0
12.0,13.0,12.0,3.0,5.0,1.0,6,1.0,1,0,0,0,0,1,0,0,0,0,0,1,86118.0
20.0,20.0,10.0,6.0,8.0,1.0,9,10.0,9,0,1,1,0,0,0,1,0,0,1,1,61146.0
20.0,20.0,20.0,5.0,7.0,1.0,5,7.0,3,1,0,0,0,0,0,0,0,0,0,1,118147.0
2.0,9.0,10.0,5.0,3.0,0.0,1,0.0,7,1,1,1,1,0,0,0,1,0,0,1,59608.0
5.0,7.0,5.0,4.0,6.0,1.0,7,1.0,8,1,1,1,1,0,0,0,0,1,0,1,59073.0
7.0,10.0,8.0,5.0,4.0,0.0,6,0.0,4,1,1,1,0,0,1,0,0,0,0,1,35919.0
20.0,24.0,20.0,6.0,4.0,0.0,6,0.0,13,0,1,1,1,1,0,1,1,1,0,1,40000.0
6.0,12.0,7.0,3.0,3.0,0.0,6,0.0,4,1,1,1,0,0,0,0,0,0,0,1,91295.0
7.0,7.0,7.0,5.0,5.0,1.0,6,0.0,3,0,1,0,1,0,1,0,0,0,0,1,53808.0
7.0,10.0,7.0,6.0,2.0,0.0,8,7.0,1,0,0,0,0,0,0,0,0,0,0,1,45600.0
9.0,13.0,10.0,5.0,7.0,2.0,6,10.0,3,1,1,0,0,0,0,0,0,1,0,1,150369.0
18.0,24.0,10.0,6.0,9.0,1.0,6,0.0,3,0,1,1,1,0,0,0,0,0,0,1,118919.0
21.0,26.0,38.0,4.0,9.0,0.0,10,0.0,5,1,1,1,1,0,1,0,0,0,0,1,220207.0
2.0,6.0,10.0,5.0,9.0,2.0,10,8.0,9,1,1,1,1,0,1,1,0,0,1,1,60000.0
7.0,9.0,7.0,6.0,7.0,1.0,3,10.0,3,0,0,0,1,0,0,0,0,0,0,1,112777.0
9.0,14.0,9.0,5.0,5.0,0.0,10,0.0,5,1,1,0,1,1,0,0,0,0,0,1,192000.0
24.0,26.0,10.0,6.0,7.0,0.0,0,0.0,4,0,1,0,0,1,0,0,0,0,0,1,41960.0
2.0,6.0,10.0,5.0,4.0,2.0,4,1.0,4,1,0,0,1,1,0,0,0,0,0,1,16330.0
10.0,13.0,10.0,6.0,3.0,1.0,10,0.0,3,0,1,1,0,1,0,0,0,0,0,1,180000.0
23.0,28.0,25.0,3.0,2.0,0.0,6,0.0,6,1,1,1,1,0,1,0,0,0,0,1,90221.0
16.0,19.0,10.0,6.0,1.0,0.0,2,1.0,3,0,0,0,1,0,0,0,0,0,0,0,75184.0
8.0,8.0,8.0,6.0,4.0,0.0,8,0.0,2,1,0,1,0,0,0,0,0,0,0,0,78000.0
19.0,23.0,20.0,5.0,5.0,1.0,5,10.0,4,1,0,0,0,0,0,1,0,0,0,1,80555.0
2.0,7.0,2.0,5.0,5.0,1.0,6,10.0,4,1,1,1,0,0,0,0,0,0,0,1,18350.0
3.0,8.0,10.0,6.0,5.0,1.0,6,0.0,1,0,0,1,0,0,0,0,0,0,0,1,18548.0
8.0,9.0,7.0,5.0,6.0,1.0,4,1.0,2,1,0,0,0,1,0,0,0,0,0,1,46658.0
8.0,11.0,8.0,5.0,1.0,0.0,0,1.0,5,1,1,0,0,1,0,0,0,1,0,1,84000.0
1.0,3.0,1.0,4.0,5.0,1.0,6,0.0,4,0,1,1,0,0,1,0,0,0,0,1,21330.0
4.0,11.0,4.0,5.0,5.0,0.0,10,1.0,23,1,1,1,1,1,1,1,0,1,1,1,120000.0
6.0,8.0,6.0,4.0,9.0,1.0,3,5.0,3,1,0,0,0,0,0,0,0,1,0,0,53703.0
6.0,14.0,6.0,6.0,5.0,0.0,3,0.0,5,1,1,0,1,0,1,0,0,0,0,1,77332.0
1.0,6.0,10.0,6.0,5.0,1.0,2,3.0,4,1,0,0,1,0,0,0,0,1,0,1,53703.0
8.0,11.0,8.0,5.0,8.0,1.0,6,4.0,5,1,0,0,1,1,0,0,0,0,0,1,74239.0
12.0,27.0,10.0,3.0,2.0,1.0,9,0.0,8,1,1,1,1,0,0,1,0,0,1,1,127388.0
14.0,17.0,14.0,6.0,5.0,1.0,6,1.0,1,0,0,0,0,0,1,0,0,0,0,1,158918.0
19.0,23.0,10.0,5.0,9.0,2.0,10,6.0,10,1,0,0,0,0,0,1,0,0,1,1,500000.0
16.0,28.0,22.0,5.0,2.0,2.0,10,0.0,4,1,1,1,0,1,0,0,0,0,0,1,115000.0
15.0,30.0,10.0,5.0,5.0,1.0,9,1.0,3,0,0,0,1,0,1,0,0,0,0,1,104458.0
30.0,35.0,10.0,5.0,1.0,0.0,9,0.0,5,0,1,0,1,0,0,0,1,0,0,0,100636.0
3.0,10.0,3.0,5.0,3.0,1.0,3,0.0,4,0,1,0,1,1,0,0,0,0,0,1,45111.0
5.0,30.0,20.0,5.0,2.0,0.0,10,10.0,4,1,1,0,0,0,0,0,0,0,0,1,80000.0
5.0,5.0,5.0,6.0,7.0,1.0,3,10.0,1,1,0,0,0,0,0,0,0,0,0,1,75184.0
1.0,9.0,1.0,5.0,2.0,1.0,1,0.0,5,1,0,0,0,1,0,0,0,0,1,1,52339.0
9.0,10.0,9.0,3.0,6.0,1.0,6,8.0,5,0,1,1,1,0,1,0,0,0,0,1,27822.0
16.0,40.0,10.0,6.0,4.0,0.0,2,1.0,3,1,0,0,0,0,0,0,0,0,0,1,161109.0
3.0,5.0,3.0,5.0,5.0,1.0,6,0.0,8,0,1,1,1,1,0,0,0,0,0,1,55851.0
14.0,24.0,11.0,7.0,4.0,1.0,6,10.0,5,1,0,0,1,1,0,1,1,0,0,1,59073.0
18.0,22.0,18.0,6.0,8.0,1.0,10,0.0,5,1,1,1,0,1,0,0,0,0,0,1,240000.0
7.0,10.0,10.0,6.0,4.0,1.0,6,10.0,6,1,0,0,0,0,1,1,0,0,0,1,43435.0
11.0,16.0,11.0,3.0,4.0,1.0,5,0.0,9,0,1,1,0,0,0,1,1,0,0,1,60792.0
25.0,25.0,25.0,3.0,7.0,1.0,10,0.0,6,0,1,0,1,0,1,0,0,0,0,1,150000.0
5.0,8.0,8.0,6.0,7.0,0.0,6,8.0,11,1,0,0,1,0,1,0,0,1,1,1,24202.0
18.0,27.0,10.0,7.0,8.0,1.0,9,10.0,5,1,0,0,0,0,0,0,0,0,0,1,95541.0
12.0,15.0,10.0,6.0,7.0,1.0,6,1.0,4,0,0,0,0,1,0,0,0,1,0,1,87812.0
25.0,29.0,10.0,5.0,4.0,1.0,10,2.0,4,0,1,1,0,0,1,0,0,0,0,1,80000.0
6.0,10.0,6.0,5.0,3.0,1.0,6,0.0,5,1,0,1,0,1,0,0,0,0,1,0,13426.0
2.0,13.0,2.0,6.0,3.0,2.0,6,1.0,4,0,0,0,1,0,1,0,0,0,1,1,20944.0
2.0,5.0,3.0,3.0,4.0,0.0,6,0.0,13,1,1,1,1,1,0,1,1,1,0,0,12889.0
3.0,3.0,10.0,3.0,4.0,1.0,9,2.0,4,0,1,0,0,1,0,0,1,0,0,1,39172.0
10.0,16.0,10.0,7.0,5.0,0.0,6,10.0,8,1,1,1,1,0,0,0,0,1,0,1,69814.0
4.0,7.0,4.0,5.0,5.0,0.0,0,1.0,3,1,0,0,1,0,1,0,0,0,0,1,24243.0
3.0,9.0,1.0,5.0,9.0,1.0,10,1.0,9,0,1,1,1,1,1,0,0,0,0,1,170000.0
2.0,8.0,3.0,5.0,5.0,1.0,3,0.0,4,1,1,0,1,1,0,0,0,0,0,1,59288.0
21.0,29.0,21.0,3.0,3.0,1.0,3,8.0,4,0,0,0,0,0,0,0,0,0,0,1,69814.0
2.0,4.0,10.0,6.0,2.0,0.0,4,10.0,5,1,1,0,1,0,0,0,0,0,0,1,14356.0
5.0,7.0,6.0,3.0,4.0,0.0,6,1.0,11,1,1,1,1,1,0,1,1,0,0,1,13597.0
8.0,12.0,10.0,5.0,2.0,2.0,6,2.0,2,0,1,1,0,0,0,0,0,0,0,1,26363.0
6.0,9.0,6.0,5.0,8.0,0.0,10,10.0,7,1,1,1,1,0,0,0,0,1,0,1,145000.0
10.0,17.0,10.0,5.0,5.0,1.0,5,1.0,5,0,1,1,1,0,1,0,0,0,0,1,128887.0
8.0,11.0,10.0,7.0,6.0,1.0,3,8.0,6,1,0,0,1,0,1,0,0,0,0,1,80555.0
13.0,19.0,13.0,5.0,3.0,1.0,5,1.0,5,1,0,0,0,0,1,1,0,1,0,1,70244.0
10.0,18.0,10.0,6.0,4.0,0.0,8,1.0,1,0,0,0,0,1,0,0,0,0,0,1,74052.0
3.0,5.0,16.0,6.0,8.0,1.0,9,10.0,4,1,0,0,1,0,0,0,0,0,0,1,71082.0
3.0,10.0,10.0,6.0,6.0,1.0,2,10.0,6,1,0,0,1,1,0,1,0,0,0,1,42962.0
5.0,13.0,10.0,7.0,2.0,1.0,6,10.0,6,1,0,0,0,1,0,1,0,0,0,0,155984.0
6.0,13.0,6.0,5.0,7.0,1.0,6,7.0,3,0,0,0,1,0,0,0,0,0,0,1,64444.0
5.0,8.0,8.0,7.0,9.0,1.0,3,3.0,10,1,0,0,1,1,0,1,0,0,0,1,107406.0
15.0,21.0,10.0,5.0,3.0,2.0,6,1.0,7,0,1,1,1,1,1,0,0,0,0,1,102950.0
2.0,4.0,2.0,5.0,9.0,2.0,6,0.0,6,1,1,0,1,0,0,0,0,0,0,1,51555.0
1.0,6.0,1.0,5.0,2.0,2.0,10,10.0,7,1,1,0,1,0,0,0,0,0,1,0,20800.0
5.0,10.0,6.0,5.0,5.0,0.0,9,10.0,9,1,1,1,1,0,1,0,0,1,0,1,95541.0
7.0,7.0,10.0,5.0,5.0,0.0,7,1.0,1,0,0,0,0,0,0,0,0,0,0,1,51555.0
13.0,15.0,12.0,6.0,6.0,0.0,8,10.0,2,0,0,0,0,0,0,1,0,0,0,1,55200.0
1.0,2.0,10.0,6.0,5.0,1.0,8,10.0,1,1,0,0,0,0,0,0,0,0,0,1,14810.0
12.0,16.0,12.0,5.0,6.0,0.0,10,0.0,4,0,1,1,0,0,0,0,0,0,0,1,150000.0
3.0,4.0,3.0,5.0,3.0,2.0,3,0.0,5,0,1,1,1,1,0,0,0,0,0,1,59073.0
7.0,12.0,7.0,7.0,2.0,2.0,2,10.0,2,1,0,0,0,0,0,1,0,0,0,0,77332.0
20.0,25.0,22.0,5.0,3.0,1.0,9,1.0,4,0,1,0,1,0,1,0,0,0,0,1,108280.0
1.0,5.0,2.0,3.0,4.0,1.0,1,0.0,7,1,1,1,0,1,1,0,1,0,0,1,19627.0
2.0,4.0,2.0,5.0,2.0,0.0,8,0.0,5,0,1,0,1,0,1,0,0,0,0,1,16588.0
14.0,18.0,10.0,6.0,9.0,0.0,4,0.0,9,1,0,0,1,1,1,1,0,1,0,1,53836.0
11.0,14.0,12.0,5.0,4.0,1.0,10,0.0,8,1,1,0,1,0,0,0,1,0,1,1,133000.0
19.0,22.0,10.0,6.0,6.0,0.0,6,6.0,3,0,1,0,1,0,1,0,0,0,0,1,102427.0
12.0,16.0,12.0,6.0,5.0,0.0,6,9.0,1,0,0,0,0,0,0,1,0,0,0,1,74239.0
6.0,10.0,6.0,5.0,4.0,0.0,10,0.0,5,0,1,1,0,0,0,0,0,1,1,1,170000.0
6.0,10.0,6.0,5.0,7.0,2.0,1,1.0,6,1,1,0,1,0,0,0,1,0,1,1,91593.0
30.0,43.0,10.0,7.0,8.0,0.0,6,1.0,5,0,0,0,0,0,0,0,0,0,0,1,95384.0
6.0,6.0,6.0,3.0,6.0,0.0,8,1.0,6,1,0,0,1,0,0,0,0,1,0,1,68374.0
9.0,14.0,9.0,5.0,9.0,0.0,10,6.0,3,1,0,0,0,0,1,1,0,0,0,1,257695.0
3.0,10.0,3.0,5.0,7.0,0.0,0,1.0,7,1,1,1,1,0,1,1,0,1,0,1,46622.0
3.0,7.0,3.0,5.0,4.0,0.0,8,8.0,1,0,0,0,0,0,1,0,0,0,0,1,19253.0
17.0,24.0,18.0,5.0,7.0,2.0,6,8.0,4,0,1,0,1,0,1,0,0,0,0,1,14366.0
18.0,20.0,10.0,3.0,5.0,0.0,3,2.0,5,0,1,1,1,0,0,0,1,0,0,0,128887.0
10.0,30.0,10.0,7.0,4.0,0.0,10,10.0,1,0,0,0,0,0,0,0,0,0,0,1,70000.0
30.0,34.0,30.0,3.0,5.0,1.0,6,0.0,7,0,1,1,1,0,1,0,0,0,0,1,62000.0
5.0,10.0,19.0,5.0,7.0,0.0,6,5.0,3,1,0,0,1,0,0,0,0,1,0,0,85000.0
7.0,8.0,7.0,2.0,3.0,1.0,3,9.0,2,0,0,0,0,0,0,1,0,0,0,1,53703.0
10.0,14.0,15.0,5.0,5.0,0.0,6,7.0,9,1,1,1,0,0,1,0,1,0,0,1,77332.0
9.0,12.0,9.0,5.0,5.0,1.0,6,7.0,4,0,1,0,0,0,0,0,0,0,0,0,14720.0
17.0,32.0,17.0,6.0,5.0,1.0,3,10.0,2,1,0,0,0,0,0,0,0,0,0,1,57999.0
2.0,9.0,10.0,5.0,9.0,1.0,6,0.0,6,0,1,1,1,0,1,0,0,0,0,1,66066.0
8.0,10.0,8.0,5.0,2.0,1.0,6,0.0,3,0,1,1,0,0,0,0,0,0,1,1,21728.0
4.0,5.0,10.0,5.0,8.0,2.0,10,10.0,4,0,0,0,1,0,0,0,0,0,0,1,105000.0
15.0,30.0,30.0,6.0,7.0,1.0,3,9.0,3,1,0,0,0,0,0,1,0,0,0,1,97740.0
6.0,9.0,10.0,2.0,7.0,2.0,3,10.0,4,0,0,0,0,0,0,0,1,0,0,1,69814.0
2.0,9.0,2.0,5.0,7.0,1.0,6,0.0,7,1,0,0,0,1,1,1,0,0,0,1,45478.0
1.0,5.0,2.0,4.0,2.0,2.0,6,0.0,6,1,1,0,1,0,0,0,1,0,0,1,13400.0
3.0,7.0,10.0,5.0,3.0,1.0,8,10.0,2,1,0,0,0,0,0,1,0,0,0,1,24684.0
9.0,9.0,10.0,2.0,5.0,1.0,10,0.0,1,0,0,0,0,0,0,0,0,0,0,1,70000.0
7.0,10.0,13.0,7.0,6.0,2.0,2,10.0,4,1,0,0,1,0,1,0,0,0,0,1,71962.0
2.0,4.0,3.0,5.0,4.0,2.0,4,3.0,4,1,1,0,1,0,0,0,0,0,0,1,11963.0
7.0,10.0,7.0,5.0,7.0,1.0,4,1.0,2,1,0,0,1,0,0,0,0,0,0,1,59817.0
3.0,10.0,10.0,2.0,7.0,0.0,7,0.0,1,0,0,0,0,1,0,0,0,0,0,1,35444.0
10.0,15.0,10.0,5.0,5.0,1.0,3,0.0,4,1,1,1,0,0,0,0,0,0,0,0,56388.0
5.0,6.0,30.0,5.0,7.0,0.0,1,4.0,2,0,0,0,1,0,0,0,0,0,0,1,79962.0
15.0,25.0,15.0,5.0,5.0,1.0,5,0.0,4,0,1,0,1,0,1,0,0,0,0,1,75184.0
2.0,3.0,3.0,2.0,3.0,0.0,8,1.0,14,1,1,1,1,1,1,1,0,0,0,1,15000.0
10.0,34.0,10.0,7.0,4.0,0.0,8,10.0,3,1,0,0,1,0,0,0,0,0,0,1,130000.0
2.0,4.0,9.0,5.0,5.0,1.0,6,10.0,1,0,0,0,0,0,0,0,0,1,0,1,108074.0
8.0,9.0,10.0,5.0,2.0,0.0,10,0.0,5,1,1,1,0,0,0,0,0,1,1,1,150000.0
3.0,8.0,3.0,5.0,5.0,1.0,3,10.0,7,1,1,1,1,1,0,0,0,1,0,0,60147.0
2.0,5.0,2.0,2.0,3.0,2.0,6,2.0,4,0,1,0,0,0,1,0,1,0,0,1,55374.0
22.0,25.0,22.0,6.0,4.0,0.0,6,1.0,6,0,1,1,1,0,1,0,0,0,0,1,44818.0
7.0,14.0,7.0,5.0,8.0,1.0,10,10.0,5,0,1,0,0,0,0,0,1,0,0,1,100000.0
7.0,11.0,7.0,6.0,5.0,1.0,6,0.0,10,1,1,1,1,1,0,0,1,0,0,1,79552.0
2.0,7.0,7.0,5.0,7.0,0.0,10,0.0,8,1,1,1,1,0,0,0,0,0,0,1,150000.0
10.0,14.0,10.0,7.0,7.0,0.0,9,10.0,4,1,0,0,1,0,0,0,0,0,0,1,207642.0
2.0,6.0,2.0,5.0,3.0,1.0,6,0.0,6,0,1,1,1,0,0,0,0,0,0,1,11400.0
10.0,25.0,15.0,5.0,2.0,0.0,10,10.0,6,1,0,1,0,1,0,0,1,0,0,1,60000.0
14.0,20.0,14.0,6.0,8.0,1.0,2,0.0,3,0,1,0,1,1,0,0,0,0,0,1,70888.0
7.0,10.0,8.0,5.0,5.0,1.0,6,0.0,4,0,1,1,1,0,0,0,0,0,0,1,55645.0
30.0,45.0,10.0,6.0,2.0,0.0,6,0.0,4,0,1,1,0,0,1,0,0,0,0,1,51555.0
16.0,20.0,10.0,6.0,9.0,0.0,6,10.0,10,1,1,1,0,1,0,0,0,1,1,1,225553.0
15.0,20.0,10.0,3.0,9.0,1.0,10,1.0,7,1,1,0,0,1,0,1,0,1,0,1,300000.0
3.0,6.0,10.0,6.0,6.0,1.0,3,1.0,7,1,0,1,0,1,1,0,0,0,0,1,56925.0
3.0,5.0,19.0,3.0,7.0,0.0,10,0.0,5,1,1,0,0,0,0,0,1,0,0,1,101000.0
3.0,8.0,3.0,5.0,7.0,2.0,10,10.0,7,0,1,1,1,0,0,0,0,0,0,1,84000.0
23.0,28.0,25.0,5.0,3.0,0.0,6,1.0,6,0,1,1,1,1,0,0,0,0,0,1,92492.0
13.0,16.0,13.0,5.0,1.0,0.0,6,0.0,6,0,1,1,0,0,0,1,1,1,0,1,56239.0
20.0,25.0,10.0,3.0,5.0,0.0,6,0.0,5,0,1,0,0,0,0,0,0,0,0,0,118147.0
6.0,7.0,6.0,3.0,3.0,1.0,6,0.0,6,0,1,1,1,0,1,0,0,0,0,1,48333.0
7.0,10.0,7.0,6.0,9.0,1.0,10,10.0,4,1,0,0,0,0,0,1,0,0,0,0,25868.0
2.0,5.0,10.0,5.0,3.0,0.0,6,2.0,2,0,1,1,0,0,0,0,0,0,0,1,30074.0
2.0,11.0,11.0,5.0,9.0,1.0,2,0.0,9,1,1,1,1,1,1,0,0,1,0,1,21481.0
10.0,13.0,11.0,5.0,5.0,0.0,6,8.0,6,0,0,1,1,0,1,1,0,0,0,1,40997.0
5.0,10.0,5.0,5.0,7.0,0.0,4,0.0,5,0,1,1,1,0,0,0,0,1,0,1,47854.0
4.0,5.0,10.0,3.0,5.0,0.0,9,0.0,7,1,1,1,1,0,0,0,0,1,0,1,95541.0
14.0,22.0,10.0,6.0,9.0,0.0,6,0.0,3,0,0,1,0,0,1,0,0,0,0,1,77332.0
7.0,9.0,10.0,6.0,4.0,1.0,3,4.0,2,1,0,0,0,0,0,0,0,0,0,1,86999.0
2.0,7.0,10.0,5.0,5.0,1.0,6,1.0,9,1,1,1,1,0,1,1,0,0,0,0,24746.0
7.0,7.0,7.0,6.0,3.0,0.0,0,0.0,3,1,1,0,0,0,0,0,0,0,0,1,67135.0
5.0,5.0,5.0,6.0,4.0,0.0,7,1.0,4,0,0,1,0,0,0,0,0,0,0,1,73036.0
20.0,22.0,10.0,2.0,9.0,1.0,6,4.0,5,1,1,0,1,0,0,0,1,0,0,1,222834.0
10.0,14.0,12.0,6.0,4.0,2.0,10,8.0,1,0,0,0,0,0,0,1,0,0,0,1,159000.0
6.0,6.0,10.0,4.0,6.0,0.0,10,0.0,8,1,1,0,1,1,1,0,0,1,0,1,123000.0
16.0,30.0,16.0,6.0,8.0,0.0,6,0.0,9,1,1,0,1,1,1,1,1,0,0,0,83148.0
2.0,8.0,2.0,3.0,2.0,1.0,6,0.0,10,1,1,0,1,0,0,0,0,1,0,0,105000.0
4.0,6.0,4.0,5.0,7.0,0.0,6,1.0,6,0,0,0,1,0,0,0,0,0,0,1,46512.0
2.0,9.0,2.0,5.0,4.0,0.0,10,0.0,8,1,1,1,0,1,0,0,0,0,0,1,100000.0
9.0,10.0,10.0,5.0,7.0,2.0,10,0.0,6,0,1,0,1,0,0,1,0,0,0,1,90700.0
11.0,15.0,12.0,3.0,3.0,0.0,8,0.0,12,1,1,1,1,0,1,1,1,1,0,1,59241.0
26.0,37.0,30.0,1.0,5.0,0.0,6,10.0,8,1,1,1,1,0,1,0,0,0,0,1,110622.0
4.0,10.0,4.0,6.0,4.0,2.0,10,0.0,4,1,1,1,0,0,0,0,0,0,0,1,185000.0
10.0,14.0,10.0,4.0,9.0,1.0,1,1.0,2,0,0,0,0,1,0,0,0,0,1,1,65424.0
12.0,12.0,23.0,3.0,3.0,2.0,10,4.0,7,1,1,0,1,0,1,0,0,0,0,1,150000.0
7.0,12.0,8.0,5.0,2.0,0.0,6,0.0,3,0,1,0,1,0,0,0,0,0,0,0,143076.0
8.0,10.0,9.0,6.0,4.0,1.0,3,3.0,1,0,0,0,0,0,0,0,0,0,0,1,66592.0
0.0,5.0,10.0,2.0,2.0,2.0,6,0.0,4,1,1,1,0,0,0,0,0,0,0,1,21088.0
16.0,23.0,15.0,5.0,4.0,0.0,10,1.0,3,0,0,0,0,0,0,0,0,0,0,1,213000.0
3.0,4.0,3.0,5.0,9.0,1.0,3,4.0,2,1,0,0,0,0,0,0,0,0,1,0,15466.0
8.0,12.0,8.0,5.0,9.0,2.0,4,1.0,6,1,0,1,1,1,0,1,0,0,0,1,28712.0
16.0,16.0,16.0,7.0,9.0,1.0,10,8.0,1,0,0,0,0,0,0,1,0,0,0,1,220000.0
7.0,20.0,7.0,7.0,5.0,0.0,10,5.0,15,1,1,1,1,1,1,1,0,1,0,1,200000.0
6.0,10.0,6.0,5.0,1.0,2.0,6,0.0,6,1,1,1,1,0,1,0,0,0,0,1,65343.0
12.0,15.0,20.0,7.0,9.0,1.0,2,10.0,5,1,0,0,0,0,0,0,0,0,0,1,48333.0
1.0,6.0,10.0,5.0,5.0,2.0,3,1.0,2,0,0,0,0,1,0,0,0,0,0,1,64444.0
20.0,27.0,22.0,3.0,8.0,0.0,1,10.0,8,1,0,0,1,0,0,0,1,0,0,0,325000.0
22.0,26.0,10.0,5.0,7.0,1.0,0,8.0,5,0,1,0,1,0,1,0,0,0,0,1,27787.0
25.0,33.0,10.0,6.0,3.0,1.0,5,0.0,4,0,0,0,0,0,0,0,0,0,1,1,70888.0
1.0,2.0,10.0,5.0,4.0,1.0,8,1.0,5,1,0,0,1,0,1,0,0,0,0,1,13823.0
5.0,6.0,5.0,5.0,5.0,0.0,6,2.0,5,0,1,1,1,0,1,0,0,0,0,1,21808.0
6.0,10.0,40.0,5.0,7.0,0.0,10,10.0,2,0,0,0,0,0,0,0,0,1,0,1,165000.0
7.0,7.0,7.0,5.0,4.0,1.0,6,2.0,6,1,1,1,0,0,0,1,0,0,1,1,78431.0
10.0,13.0,10.0,5.0,5.0,0.0,6,0.0,7,0,1,1,1,0,1,0,0,0,0,1,90221.0
2.0,14.0,2.0,6.0,9.0,1.0,9,1.0,4,0,0,0,0,1,0,0,0,1,0,1,98089.0
13.0,17.0,13.0,6.0,2.0,1.0,6,6.0,1,1,0,0,0,0,0,0,0,0,0,1,82703.0
8.0,8.0,10.0,2.0,9.0,1.0,3,0.0,7,1,1,0,1,0,0,0,0,0,0,1,85925.0
19.0,24.0,19.0,6.0,6.0,1.0,6,4.0,2,1,0,0,1,0,0,0,0,0,0,1,118731.0
4.0,5.0,4.0,5.0,9.0,1.0,4,0.0,5,0,1,1,1,1,0,0,0,0,0,1,10947.0
24.0,28.0,24.0,5.0,6.0,0.0,10,0.0,3,0,0,0,1,0,0,0,0,0,0,1,240000.0
5.0,7.0,18.0,6.0,4.0,0.0,2,0.0,7,0,1,1,0,1,0,0,0,0,0,1,67666.0
25.0,30.0,25.0,6.0,3.0,0.0,9,10.0,9,1,1,1,1,0,0,1,1,0,0,1,63694.0
5.0,7.0,5.0,6.0,8.0,1.0,2,0.0,3,0,0,0,1,1,1,0,0,0,0,1,42962.0
5.0,8.0,10.0,5.0,7.0,1.0,6,0.0,6,1,1,0,1,0,1,0,1,0,0,1,79279.0
15.0,15.0,10.0,4.0,4.0,2.0,0,10.0,8,1,1,0,1,0,1,1,0,0,0,1,18649.0
23.0,27.0,10.0,6.0,4.0,0.0,6,0.0,2,0,1,0,0,1,0,0,0,0,0,0,128887.0
3.0,6.0,3.0,3.0,4.0,0.0,8,0.0,9,1,1,1,1,0,0,0,1,1,0,1,35000.0
4.0,10.0,10.0,2.0,4.0,1.0,3,8.0,6,0,0,0,1,0,1,1,0,0,0,1,64444.0
5.0,6.0,10.0,6.0,4.0,1.0,9,1.0,4,1,1,0,1,1,0,0,0,0,0,1,101910.0
5.0,9.0,10.0,5.0,5.0,1.0,3,0.0,8,0,1,1,1,1,0,0,0,0,0,1,51555.0
7.0,12.0,7.0,5.0,3.0,0.0,8,0.0,4,0,1,0,1,0,0,0,1,0,0,1,60000.0
5.0,10.0,5.0,5.0,5.0,0.0,9,7.0,7,0,1,0,1,0,1,0,0,0,0,1,76433.0
20.0,25.0,20.0,5.0,9.0,2.0,4,9.0,4,1,0,0,0,0,0,1,0,0,0,1,71781.0
2.0,8.0,10.0,6.0,9.0,1.0,10,10.0,8,1,1,1,1,0,1,0,0,1,0,1,115000.0
19.0,23.0,19.0,6.0,7.0,1.0,9,1.0,16,1,1,0,1,1,0,1,1,1,1,1,152865.0
11.0,17.0,11.0,6.0,8.0,1.0,8,0.0,4,0,0,1,1,0,1,0,0,0,0,1,142179.0
11.0,15.0,11.0,5.0,9.0,1.0,6,9.0,2,0,0,0,0,0,0,1,0,0,0,1,86254.0
26.0,36.0,30.0,5.0,6.0,1.0,6,1.0,4,0,1,0,1,1,0,0,0,0,0,1,178267.0
8.0,9.0,10.0,5.0,3.0,0.0,8,0.0,1,0,0,0,0,0,0,0,0,0,0,1,74644.0
5.0,8.0,10.0,5.0,9.0,0.0,10,10.0,4,0,1,1,0,0,0,0,0,0,0,1,180000.0
17.0,25.0,10.0,6.0,9.0,1.0,6,1.0,6,1,1,1,1,0,0,0,0,0,0,1,125282.0
13.0,16.0,13.0,5.0,9.0,1.0,10,0.0,6,0,1,1,1,0,1,0,0,0,0,1,95000.0
3.0,5.0,4.0,6.0,9.0,1.0,6,1.0,1,0,0,0,0,1,0,0,0,0,0,1,11791.0
11.0,20.0,10.0,3.0,6.0,1.0,10,4.0,10,1,1,1,1,1,1,0,0,0,0,1,110000.0
11.0,14.0,14.0,5.0,2.0,0.0,10,0.0,6,0,1,0,0,0,1,0,0,0,0,1,180000.0
18.0,23.0,10.0,3.0,2.0,0.0,10,0.0,9,0,1,1,1,1,0,0,1,1,0,1,100000.0
7.0,11.0,10.0,5.0,5.0,0.0,10,2.0,3,0,0,1,0,0,0,0,1,0,0,1,104000.0
2.0,10.0,10.0,6.0,5.0,2.0,2,3.0,3,1,0,0,1,0,0,0,0,0,0,1,53703.0
13.0,17.0,17.0,5.0,9.0,1.0,10,0.0,2,0,0,1,0,0,0,0,0,0,0,1,230000.0
3.0,6.0,3.0,3.0,2.0,1.0,6,0.0,8,0,1,1,1,0,1,0,1,0,0,1,22555.0
1.0,5.0,2.0,3.0,3.0,0.0,6,0.0,4,0,1,1,1,0,0,0,0,0,0,0,27000.0
1.0,7.0,10.0,5.0,4.0,2.0,9,1.0,9,1,1,1,1,1,1,0,0,1,1,1,70063.0
6.0,11.0,6.0,6.0,4.0,2.0,2,8.0,3,0,0,1,0,1,0,0,0,0,0,1,41888.0
30.0,38.0,30.0,5.0,7.0,0.0,10,7.0,7,0,1,1,1,1,0,0,0,0,0,1,185000.0
8.0,25.0,10.0,6.0,4.0,0.0,10,0.0,5,0,1,1,0,0,0,0,0,0,0,1,200000.0
8.0,10.0,8.0,4.0,2.0,1.0,6,4.0,1,0,0,0,1,0,0,0,0,0,0,1,38666.0
2.0,7.0,10.0,5.0,5.0,2.0,6,10.0,5,1,0,0,0,1,0,1,0,0,0,0,21777.0
20.0,23.0,10.0,6.0,6.0,0.0,8,8.0,1,0,0,0,0,1,0,0,0,0,0,1,19747.0
8.0,13.0,10.0,6.0,9.0,0.0,6,2.0,4,0,1,1,0,0,1,0,0,0,0,1,82737.0
3.0,9.0,10.0,5.0,5.0,1.0,10,0.0,6,1,1,1,1,0,0,0,0,0,0,1,80000.0
10.0,12.0,20.0,3.0,7.0,0.0,10,0.0,1,0,1,0,0,0,0,0,0,0,0,1,130000.0
3.0,4.0,6.0,6.0,2.0,0.0,10,0.0,7,1,1,1,1,0,1,0,0,0,1,1,100000.0
5.0,8.0,5.0,6.0,8.0,1.0,4,0.0,10,1,1,1,1,1,1,1,0,0,0,1,29909.0
5.0,10.0,10.0,6.0,4.0,0.0,6,10.0,1,1,0,0,0,0,0,0,0,0,0,0,61866.0
3.0,12.0,10.0,6.0,4.0,1.0,2,1.0,3,1,0,0,0,0,0,1,0,0,0,1,45111.0
5.0,5.0,8.0,6.0,7.0,1.0,2,0.0,6,0,1,1,1,0,0,0,0,0,1,1,64444.0
14.0,20.0,10.0,5.0,9.0,1.0,6,5.0,7,1,0,0,1,1,1,0,0,0,0,0,79279.0
13.0,26.0,20.0,6.0,4.0,0.0,6,0.0,3,0,0,1,1,0,1,0,0,0,0,1,59940.0
19.0,24.0,19.0,3.0,4.0,0.0,7,2.0,3,0,1,1,0,0,0,0,0,0,0,1,107406.0
5.0,9.0,5.0,6.0,3.0,0.0,8,10.0,1,0,0,0,0,0,1,0,0,0,0,1,29621.0
2.0,6.0,2.0,5.0,9.0,2.0,4,0.0,9,1,1,0,0,1,0,1,0,1,1,1,17945.0
1.0,8.0,1.0,5.0,4.0,2.0,4,7.0,2,0,0,0,1,0,0,0,0,0,0,1,13758.0
2.0,8.0,3.0,3.0,4.0,1.0,6,10.0,5,1,0,0,0,0,1,1,0,0,1,1,25241.0
8.0,8.0,10.0,6.0,5.0,0.0,8,1.0,4,1,1,0,1,0,0,0,0,1,0,1,72000.0
14.0,23.0,14.0,5.0,1.0,0.0,10,0.0,4,0,1,0,0,0,0,0,1,0,0,1,116000.0
20.0,25.0,25.0,5.0,6.0,2.0,3,1.0,5,0,1,1,0,1,0,0,0,0,0,1,83777.0
27.0,38.0,27.0,3.0,4.0,0.0,1,1.0,1,0,0,0,0,0,0,0,0,0,0,1,103631.0
2.0,12.0,2.0,6.0,4.0,2.0,6,9.0,6,1,0,0,0,0,1,1,0,0,0,1,85791.0
20.0,30.0,21.0,7.0,5.0,1.0,3,1.0,5,1,0,0,0,0,0,1,0,0,0,0,57999.0
6.0,10.0,11.0,7.0,4.0,0.0,9,6.0,6,1,1,1,1,0,0,0,0,0,0,1,146496.0
1.0,7.0,10.0,5.0,9.0,1.0,1,10.0,1,0,0,0,0,0,0,0,0,0,0,1,50885.0
5.0,9.0,5.0,6.0,4.0,0.0,3,10.0,4,1,0,1,1,0,0,0,0,0,0,1,53703.0
40.0,40.0,10.0,5.0,8.0,0.0,10,0.0,4,0,1,0,0,1,0,0,0,0,0,1,150000.0
15.0,27.0,15.0,2.0,5.0,0.0,10,0.0,7,0,1,1,1,0,0,0,0,1,0,1,182000.0
5.0,7.0,3.0,2.0,5.0,1.0,6,1.0,6,0,1,1,1,0,0,0,1,0,0,1,10767.0
13.0,18.0,10.0,7.0,1.0,1.0,6,8.0,2,0,0,0,1,0,1,0,0,0,0,0,82526.0
18.0,30.0,18.0,5.0,5.0,0.0,0,8.0,1,0,0,0,0,1,0,0,0,0,0,1,37297.0
9.0,9.0,9.0,6.0,4.0,0.0,8,4.0,4,1,1,1,0,0,0,0,0,0,0,1,67200.0
7.0,13.0,8.0,7.0,9.0,0.0,6,1.0,2,0,0,0,1,1,0,0,0,0,0,1,42300.0
4.0,7.0,8.0,6.0,4.0,0.0,8,2.0,3,0,1,1,0,0,0,0,0,0,0,1,24000.0
5.0,10.0,5.0,5.0,5.0,1.0,5,8.0,8,0,1,1,1,0,1,1,0,0,0,1,64981.0
9.0,9.0,10.0,5.0,7.0,0.0,3,7.0,1,0,0,0,0,0,0,0,0,0,0,1,75184.0
25.0,31.0,10.0,6.0,4.0,0.0,10,10.0,4,1,0,0,0,0,1,1,0,0,0,1,400000.0
5.0,7.0,5.0,5.0,4.0,2.0,6,10.0,3,0,1,1,0,0,0,0,0,0,0,1,32222.0
1.0,3.0,1.0,3.0,2.0,0.0,10,0.0,7,0,1,1,1,0,1,1,0,0,0,1,25000.0
9.0,10.0,9.0,6.0,7.0,0.0,9,4.0,1,1,0,0,0,0,0,0,0,0,0,0,57325.0
6.0,8.0,6.0,5.0,7.0,1.0,6,1.0,2,0,0,0,1,0,1,0,0,0,0,1,44544.0
20.0,30.0,10.0,5.0,2.0,2.0,6,9.0,5,0,0,0,0,0,0,1,0,0,0,1,37592.0
20.0,26.0,20.0,5.0,6.0,0.0,9,0.0,6,0,1,1,1,0,1,0,0,0,0,1,82802.0
14.0,36.0,23.0,7.0,8.0,2.0,6,10.0,8,1,0,0,0,1,0,1,0,0,1,1,99099.0
26.0,34.0,10.0,6.0,5.0,1.0,10,10.0,4,1,0,0,0,1,0,1,0,0,0,1,200000.0
15.0,20.0,15.0,5.0,4.0,0.0,5,10.0,4,1,1,1,0,1,0,0,0,0,0,1,161109.0
6.0,11.0,10.0,5.0,5.0,0.0,6,0.0,7,1,1,1,1,0,1,0,0,0,0,1,60147.0
3.0,10.0,3.0,5.0,4.0,1.0,1,1.0,5,1,0,1,1,0,0,0,0,0,0,1,54520.0
2.0,6.0,3.0,5.0,9.0,0.0,0,4.0,5,1,0,0,1,1,0,0,0,0,0,1,23945.0
3.0,6.0,3.0,5.0,5.0,1.0,4,1.0,3,0,0,0,1,1,0,0,0,1,0,1,14356.0
23.0,28.0,23.0,1.0,9.0,0.0,10,0.0,8,1,1,1,0,0,1,0,0,1,1,1,132612.0
4.0,7.0,10.0,5.0,5.0,2.0,6,1.0,5,0,1,1,1,1,0,0,0,0,0,0,56633.0
5.0,5.0,23.0,3.0,5.0,1.0,6,0.0,6,0,1,0,1,0,1,0,1,0,0,1,59459.0
3.0,6.0,4.0,3.0,9.0,1.0,0,0.0,14,1,0,0,0,1,1,1,1,0,0,1,26108.0
30.0,32.0,10.0,5.0,3.0,1.0,3,1.0,7,1,1,0,1,0,0,0,0,0,1,1,128887.0
7.0,17.0,7.0,5.0,2.0,2.0,6,1.0,7,1,1,0,1,0,0,1,0,0,0,1,45111.0
26.0,27.0,10.0,3.0,7.0,0.0,3,0.0,6,0,1,0,1,0,0,0,1,1,0,1,91295.0
10.0,20.0,12.0,6.0,3.0,0.0,6,9.0,3,1,0,0,0,0,0,1,0,0,1,1,60809.0
25.0,30.0,30.0,5.0,8.0,1.0,6,2.0,16,0,1,1,1,1,0,1,1,0,0,1,64444.0
4.0,15.0,4.0,6.0,4.0,0.0,8,1.0,3,0,0,0,1,0,0,0,0,0,0,1,12342.0
10.0,15.0,10.0,5.0,6.0,1.0,5,0.0,7,0,1,1,1,0,1,0,0,1,0,1,68740.0
4.0,8.0,4.0,6.0,4.0,1.0,6,8.0,3,1,0,0,1,0,0,1,0,0,0,1,53467.0
22.0,25.0,10.0,6.0,1.0,0.0,3,0.0,8,1,1,1,1,0,1,0,0,0,0,0,107406.0
1.0,10.0,10.0,5.0,4.0,0.0,6,10.0,3,0,0,0,0,0,1,1,0,0,0,1,57723.0
2.0,4.0,3.0,5.0,6.0,2.0,10,10.0,3,0,1,1,0,0,1,0,0,0,0,1,70000.0
26.0,41.0,10.0,7.0,4.0,2.0,2,9.0,5,1,1,0,0,0,0,0,0,0,0,1,64444.0
24.0,33.0,24.0,3.0,9.0,0.0,6,1.0,7,1,0,1,1,0,1,1,0,0,0,1,139628.0
30.0,35.0,30.0,3.0,4.0,0.0,1,3.0,12,1,1,0,1,1,0,1,0,1,0,1,215000.0
5.0,9.0,5.0,6.0,7.0,1.0,6,0.0,6,1,1,1,1,1,0,0,0,0,0,1,48333.0
14.0,20.0,14.0,5.0,7.0,1.0,6,0.0,5,1,1,0,0,1,0,0,0,1,0,1,171850.0
4.0,6.0,10.0,5.0,2.0,1.0,8,2.0,3,0,1,1,0,0,0,0,0,0,0,1,21327.0
10.0,15.0,10.0,6.0,9.0,0.0,1,0.0,3,0,1,1,0,0,0,0,0,0,0,1,167194.0
8.0,13.0,8.0,5.0,7.0,0.0,10,1.0,2,0,0,0,0,0,1,0,0,0,0,1,142000.0
12.0,18.0,12.0,6.0,4.0,1.0,6,0.0,8,0,1,1,1,1,0,0,0,0,0,1,116642.0
17.0,24.0,10.0,5.0,9.0,0.0,6,1.0,6,0,1,1,1,1,0,0,0,0,0,1,56022.0
4.0,10.0,4.0,6.0,7.0,1.0,6,0.0,5,1,0,1,0,1,0,0,0,0,0,1,96666.0
0.0,5.0,10.0,6.0,5.0,1.0,6,1.0,15,1,1,1,1,1,0,1,1,0,0,1,35444.0
2.0,3.0,2.0,3.0,8.0,0.0,0,1.0,5,0,1,1,1,0,1,0,0,0,0,1,23083.0
29.0,38.0,10.0,6.0,1.0,1.0,6,0.0,5,1,1,1,0,0,0,0,0,0,0,0,122402.0
20.0,40.0,35.0,7.0,8.0,1.0,9,10.0,4,1,0,0,0,0,0,0,0,0,0,1,70063.0
24.0,41.0,44.0,6.0,5.0,1.0,10,0.0,5,1,1,0,1,0,0,0,0,0,0,1,106000.0
19.0,25.0,19.0,5.0,4.0,0.0,10,10.0,10,1,1,1,0,1,1,0,0,1,1,1,275000.0
2.0,7.0,2.0,5.0,3.0,0.0,6,0.0,4,1,1,0,1,0,0,0,0,0,0,1,23132.0
10.0,25.0,10.0,7.0,7.0,1.0,9,10.0,3,1,0,0,0,0,0,0,0,0,0,1,57325.0
30.0,30.0,32.0,5.0,5.0,1.0,6,1.0,4,0,1,0,1,0,1,0,0,0,1,1,250000.0
9.0,14.0,10.0,6.0,9.0,1.0,5,3.0,3,1,0,0,0,0,0,0,0,0,0,1,214812.0
6.0,11.0,10.0,6.0,7.0,0.0,8,1.0,2,0,0,0,0,1,0,0,0,0,0,1,33175.0
14.0,18.0,10.0,6.0,5.0,0.0,4,8.0,5,1,1,0,1,0,0,0,0,0,0,1,59817.0
3.0,4.0,10.0,2.0,2.0,2.0,3,2.0,3,0,1,0,0,0,0,0,1,0,0,1,40814.0
6.0,10.0,10.0,6.0,7.0,1.0,8,0.0,4,0,1,1,0,0,0,0,0,0,0,1,50355.0
20.0,22.0,20.0,5.0,4.0,0.0,10,0.0,9,0,1,1,1,0,0,0,0,0,1,1,215000.0
17.0,25.0,10.0,5.0,2.0,1.0,5,1.0,3,0,1,0,1,0,0,0,1,0,0,0,46399.0
4.0,8.0,10.0,3.0,5.0,0.0,6,10.0,7,1,1,1,1,0,0,0,0,1,0,0,60000.0
4.0,6.0,4.0,5.0,6.0,1.0,6,1.0,6,1,1,1,0,0,0,1,0,0,1,1,21750.0
5.0,6.0,5.0,3.0,9.0,0.0,6,0.0,5,0,1,1,1,0,0,0,0,0,0,1,28697.0
15.0,25.0,15.0,6.0,5.0,0.0,3,6.0,8,0,1,1,1,1,0,0,0,0,1,1,112777.0
9.0,12.0,14.0,5.0,7.0,0.0,0,7.0,2,0,0,0,0,1,0,0,0,0,0,1,108163.0
2.0,8.0,2.0,5.0,2.0,1.0,5,0.0,4,1,1,0,0,0,0,0,1,0,0,0,42962.0
5.0,13.0,5.0,6.0,2.0,1.0,6,10.0,4,1,1,0,1,0,0,0,0,0,0,0,48333.0
2.0,9.0,10.0,3.0,7.0,2.0,9,9.0,7,1,0,0,0,0,1,1,1,0,0,1,27771.0
2.0,8.0,2.0,5.0,5.0,0.0,6,1.0,5,1,1,1,0,1,0,0,0,0,0,1,29696.0
11.0,15.0,10.0,6.0,6.0,0.0,8,0.0,4,0,1,1,0,1,0,0,0,0,0,0,123419.0
26.0,27.0,10.0,6.0,1.0,0.0,6,10.0,7,1,0,0,1,0,1,0,0,0,0,0,72001.0
39.0,44.0,39.0,5.0,2.0,2.0,9,9.0,2,0,0,0,0,0,0,0,0,0,0,1,51544.0
6.0,10.0,8.0,6.0,6.0,0.0,9,1.0,3,1,0,0,0,0,0,0,0,0,1,1,127388.0
10.0,14.0,15.0,5.0,5.0,1.0,10,10.0,8,1,1,1,1,1,1,0,0,0,0,1,200000.0
24.0,38.0,20.0,4.0,9.0,1.0,10,10.0,3,1,1,0,0,0,0,0,0,0,0,1,110000.0
6.0,8.0,10.0,5.0,6.0,1.0,6,4.0,6,1,1,0,1,0,1,0,0,1,0,1,84232.0
27.0,28.0,10.0,5.0,9.0,1.0,10,10.0,6,1,0,0,0,0,0,1,0,0,0,1,260000.0
18.0,24.0,10.0,6.0,1.0,1.0,3,4.0,2,1,0,0,1,0,0,0,0,0,0,0,107406.0
6.0,8.0,10.0,4.0,8.0,0.0,0,10.0,3,0,0,0,0,0,0,0,0,1,0,1,48487.0
30.0,35.0,10.0,5.0,1.0,0.0,2,0.0,10,1,1,0,1,1,0,0,1,0,0,0,32222.0
6.0,16.0,6.0,3.0,9.0,0.0,9,5.0,7,1,1,1,1,0,0,0,1,0,0,1,45860.0
8.0,12.0,12.0,3.0,2.0,0.0,0,0.0,8,1,1,1,1,0,1,1,0,0,0,0,12000.0
10.0,13.0,10.0,5.0,7.0,2.0,6,1.0,4,1,0,0,1,0,0,0,0,1,0,1,25426.0
6.0,9.0,6.0,5.0,4.0,2.0,10,10.0,14,1,1,0,0,0,1,1,0,1,0,1,120000.0
9.0,14.0,10.0,5.0,7.0,1.0,1,9.0,5,1,0,0,0,0,0,1,0,1,1,1,327118.0
5.0,9.0,5.0,6.0,4.0,0.0,6,0.0,7,1,1,1,1,0,0,0,0,1,0,1,55000.0
3.0,5.0,10.0,5.0,2.0,2.0,6,2.0,9,1,1,1,1,0,1,0,1,0,0,1,23962.0
6.0,9.0,7.0,6.0,7.0,1.0,3,0.0,7,1,1,1,1,1,0,0,0,1,0,1,66592.0
4.0,6.0,4.0,2.0,9.0,1.0,3,10.0,11,1,1,0,1,0,1,1,0,0,1,1,41888.0
38.0,43.0,10.0,5.0,4.0,1.0,6,0.0,8,1,1,0,0,1,0,1,0,0,0,1,102950.0
20.0,24.0,20.0,6.0,5.0,0.0,6,10.0,6,0,1,0,1,0,1,0,0,0,0,0,120000.0
10.0,15.0,10.0,6.0,4.0,0.0,10,1.0,9,1,1,1,1,0,0,1,0,0,1,1,200000.0
5.0,9.0,5.0,5.0,6.0,0.0,6,1.0,6,0,1,0,0,1,0,0,0,1,0,1,36799.0
4.0,4.0,32.0,3.0,9.0,0.0,9,0.0,2,0,0,0,0,0,1,0,0,0,0,1,63694.0
20.0,36.0,22.0,3.0,7.0,2.0,10,0.0,6,0,1,1,1,0,1,0,0,0,0,1,123000.0
2.0,4.0,2.0,5.0,2.0,0.0,8,1.0,7,0,1,1,1,1,0,0,0,0,0,1,13033.0
21.0,23.0,22.0,5.0,8.0,1.0,10,0.0,4,0,1,0,1,0,1,0,0,0,0,1,136000.0
4.0,5.0,10.0,4.0,2.0,1.0,9,0.0,6,1,1,1,1,0,0,0,1,0,0,1,39490.0
10.0,12.0,12.0,3.0,4.0,0.0,6,0.0,4,0,1,1,0,0,1,0,0,0,0,1,53808.0
0.0,10.0,10.0,6.0,7.0,1.0,9,10.0,5,1,0,0,0,0,0,0,0,0,0,1,53503.0
6.0,8.0,7.0,5.0,5.0,1.0,9,0.0,6,1,1,1,1,0,0,0,0,0,0,1,43312.0
18.0,19.0,18.0,5.0,2.0,0.0,6,7.0,1,0,0,0,0,0,0,0,0,0,0,1,60000.0
8.0,11.0,17.0,6.0,6.0,0.0,10,3.0,3,1,0,0,1,0,0,0,0,0,0,1,250000.0
7.0,13.0,7.0,3.0,6.0,0.0,6,0.0,3,0,1,1,0,0,0,0,0,0,0,1,91751.0
12.0,16.0,14.0,5.0,5.0,1.0,4,1.0,2,1,0,0,0,1,0,0,0,0,0,1,22731.0
13.0,24.0,10.0,5.0,6.0,1.0,6,10.0,7,1,1,0,0,1,0,0,1,1,0,1,64098.0
16.0,16.0,10.0,6.0,4.0,1.0,2,0.0,5,0,1,1,1,1,0,0,0,0,0,1,61222.0
9.0,15.0,15.0,5.0,7.0,1.0,6,0.0,8,1,1,1,1,0,1,0,0,0,0,1,10217.0
13.0,13.0,10.0,7.0,2.0,1.0,1,10.0,6,1,0,0,0,0,0,1,0,0,1,1,116309.0
3.0,7.0,10.0,5.0,7.0,1.0,10,0.0,6,1,1,0,1,0,1,0,0,0,0,1,70000.0
4.0,7.0,4.0,6.0,8.0,2.0,2,2.0,2,0,0,1,0,0,0,0,0,0,0,1,44037.0
14.0,17.0,14.0,5.0,5.0,0.0,7,0.0,4,0,0,1,1,0,1,0,0,0,1,1,64444.0
10.0,15.0,10.0,5.0,5.0,0.0,6,0.0,4,0,1,0,1,0,0,0,0,0,0,1,67129.0
22.0,28.0,22.0,5.0,2.0,0.0,7,9.0,5,1,0,0,1,1,0,0,0,0,1,1,80555.0
8.0,9.0,8.0,5.0,5.0,0.0,10,2.0,3,0,1,1,0,0,1,0,0,0,0,1,138000.0
18.0,15.0,15.0,6.0,9.0,0.0,0,10.0,9,1,0,0,1,0,0,0,0,1,0,1,55946.0
4.0,14.0,4.0,5.0,6.0,0.0,10,10.0,3,1,0,0,1,0,0,0,0,0,0,1,127000.0
30.0,30.0,30.0,6.0,5.0,0.0,6,0.0,5,0,1,1,1,0,0,0,0,0,0,1,57000.0
3.0,7.0,3.0,5.0,5.0,0.0,6,7.0,1,0,0,0,0,0,0,0,0,0,0,1,28612.0
4.0,7.0,4.0,4.0,9.0,1.0,3,10.0,2,0,0,0,0,0,0,0,0,0,0,1,69814.0
17.0,20.0,10.0,6.0,6.0,1.0,6,1.0,2,1,0,0,0,0,0,1,0,0,0,0,61866.0
2.0,5.0,2.0,3.0,3.0,1.0,7,0.0,9,1,1,1,1,0,1,0,1,0,0,1,26852.0
7.0,11.0,10.0,6.0,2.0,0.0,2,0.0,2,0,1,1,0,0,0,0,0,0,0,0,35444.0
15.0,25.0,10.0,6.0,2.0,0.0,3,10.0,6,0,1,1,0,0,0,1,0,0,1,0,75184.0
6.0,8.0,6.0,6.0,9.0,0.0,0,1.0,9,1,1,1,1,1,1,1,0,1,0,1,24616.0
1.0,5.0,10.0,6.0,7.0,1.0,10,0.0,4,1,1,0,0,0,0,1,0,0,0,1,101000.0
17.0,22.0,10.0,5.0,5.0,1.0,3,8.0,2,0,0,0,1,1,0,0,0,0,0,1,109554.0
18.0,26.0,18.0,6.0,5.0,0.0,6,1.0,8,0,1,0,1,1,0,1,1,1,1,0,296957.0
12.0,15.0,14.0,6.0,9.0,0.0,10,1.0,3,1,0,0,0,1,0,0,0,0,0,1,175000.0
18.0,22.0,18.0,3.0,9.0,1.0,3,10.0,7,1,0,1,1,1,0,0,0,1,0,1,128887.0
4.0,6.0,10.0,5.0,5.0,0.0,5,10.0,7,1,0,0,0,0,0,1,0,0,1,1,204609.0
25.0,32.0,10.0,6.0,5.0,0.0,6,1.0,1,0,0,0,0,0,0,0,0,0,1,1,150413.0
13.0,20.0,13.0,3.0,4.0,1.0,6,1.0,4,0,0,0,1,1,0,0,0,0,0,1,86870.0
5.0,12.0,10.0,5.0,7.0,1.0,10,0.0,6,0,1,1,1,1,0,0,0,0,0,1,260000.0
22.0,34.0,22.0,3.0,4.0,1.0,6,0.0,2,0,0,0,0,0,1,0,0,0,0,1,54239.0
3.0,18.0,15.0,5.0,4.0,1.0,0,10.0,9,1,1,0,1,1,0,0,0,0,0,1,12122.0
4.0,5.0,5.0,5.0,3.0,2.0,6,0.0,7,1,1,0,1,0,0,1,1,0,0,1,36914.0
20.0,25.0,20.0,2.0,5.0,1.0,9,0.0,2,0,0,0,1,0,1,0,0,0,0,1,89172.0
14.0,17.0,14.0,3.0,7.0,1.0,6,4.0,7,1,1,0,1,1,0,0,0,0,1,1,148479.0
4.0,10.0,4.0,6.0,6.0,1.0,6,10.0,2,0,0,0,0,0,1,0,0,0,0,1,37592.0
4.0,6.0,6.0,6.0,3.0,0.0,4,0.0,3,1,1,0,0,0,0,0,0,0,0,1,35890.0
14.0,18.0,15.0,7.0,4.0,0.0,2,10.0,4,1,0,0,0,0,0,1,0,0,0,1,69814.0
9.0,14.0,9.0,5.0,9.0,1.0,10,10.0,12,1,1,1,1,0,0,1,0,1,1,1,155000.0
7.0,12.0,10.0,6.0,7.0,1.0,9,0.0,5,1,1,1,1,0,0,0,0,0,0,1,105732.0
3.0,4.0,10.0,5.0,5.0,1.0,6,1.0,1,1,0,0,0,0,0,0,0,0,0,1,53467.0
8.0,15.0,7.0,7.0,2.0,1.0,2,3.0,1,1,0,0,0,0,0,0,0,0,0,1,53703.0
7.0,14.0,7.0,6.0,5.0,1.0,6,0.0,7,1,1,1,0,0,0,0,0,1,1,0,50682.0
4.0,11.0,4.0,5.0,5.0,0.0,10,0.0,10,1,1,1,1,1,1,0,0,0,0,1,118000.0
8.0,14.0,10.0,6.0,7.0,0.0,10,1.0,1,0,0,0,0,0,0,0,0,1,0,1,30000.0
5.0,14.0,7.0,5.0,4.0,0.0,10,0.0,6,0,1,1,1,0,0,0,0,0,0,1,100000.0
0.0,2.0,1.0,5.0,5.0,1.0,10,0.0,15,0,1,0,1,1,0,0,1,1,1,0,110000.0
4.0,5.0,20.0,6.0,6.0,2.0,6,3.0,3,1,0,0,1,0,0,0,0,0,0,1,45492.0
11.0,11.0,10.0,3.0,4.0,1.0,6,1.0,6,1,0,1,1,0,0,0,0,1,1,1,76307.0
5.0,8.0,5.0,6.0,9.0,1.0,10,1.0,3,1,0,0,1,1,0,0,0,0,0,1,95000.0
3.0,10.0,4.0,5.0,6.0,0.0,10,10.0,10,1,0,0,1,1,0,1,0,0,1,1,180000.0
3.0,7.0,3.0,5.0,4.0,1.0,6,2.0,7,0,1,1,0,1,0,0,0,0,0,1,46614.0
13.0,24.0,13.0,6.0,9.0,1.0,10,9.0,4,1,1,1,0,0,0,0,0,0,0,1,350000.0
11.0,15.0,11.0,5.0,4.0,0.0,6,1.0,2,0,0,0,1,0,0,0,0,1,0,0,172597.0
13.0,17.0,10.0,6.0,3.0,1.0,6,0.0,3,0,1,1,0,0,0,0,0,0,0,1,81077.0
38.0,43.0,43.0,3.0,4.0,1.0,10,8.0,6,0,1,1,1,0,1,0,0,0,0,1,170000.0
15.0,25.0,16.0,6.0,6.0,0.0,6,3.0,7,1,1,0,1,0,0,0,1,0,0,1,51555.0
4.0,6.0,4.0,5.0,5.0,0.0,4,1.0,4,0,1,0,1,0,1,0,0,0,0,1,16749.0
5.0,9.0,5.0,5.0,2.0,2.0,6,0.0,8,0,1,1,1,0,0,0,1,0,1,1,15536.0
2.0,10.0,10.0,6.0,4.0,2.0,6,10.0,0,0,0,0,0,0,0,0,0,0,0,1,17615.0
3.0,10.0,3.0,6.0,5.0,1.0,9,5.0,5,1,1,1,0,0,0,1,0,0,1,1,80254.0
4.0,10.0,10.0,7.0,6.0,1.0,6,4.0,3,1,0,0,1,0,0,0,0,0,0,1,44544.0
4.0,18.0,4.0,5.0,7.0,1.0,9,1.0,12,1,1,0,1,1,0,0,1,0,1,1,33121.0
5.0,8.0,10.0,6.0,4.0,2.0,0,0.0,9,1,1,1,1,1,0,0,1,0,0,1,12532.0
6.0,14.0,6.0,6.0,5.0,0.0,9,7.0,6,0,0,1,0,0,0,0,0,0,1,1,101910.0
3.0,3.0,10.0,2.0,1.0,0.0,6,0.0,2,0,1,1,0,0,0,0,0,0,0,0,36000.0
1.0,6.0,10.0,3.0,2.0,1.0,1,0.0,6,1,1,0,0,0,1,0,0,1,0,0,56700.0
14.0,18.0,10.0,6.0,5.0,1.0,4,0.0,5,0,1,0,1,0,1,0,0,0,0,1,23927.0
3.0,7.0,7.0,6.0,4.0,1.0,10,0.0,9,1,1,1,1,0,0,0,0,1,0,1,130000.0
16.0,30.0,10.0,6.0,6.0,1.0,2,10.0,6,1,0,0,1,1,0,0,0,0,0,1,42962.0
12.0,12.0,12.0,4.0,4.0,0.0,10,0.0,9,0,1,1,1,0,0,0,0,1,1,1,172000.0
5.0,7.0,5.0,2.0,2.0,0.0,6,0.0,7,0,1,0,1,1,0,0,1,0,0,0,19743.0
23.0,31.0,23.0,5.0,5.0,1.0,1,1.0,4,1,0,0,0,1,0,1,0,0,0,1,145386.0
0.0,2.0,10.0,2.0,9.0,1.0,6,10.0,5,1,0,0,0,1,1,1,0,0,1,1,22555.0
3.0,7.0,3.0,5.0,5.0,2.0,10,10.0,1,1,0,0,0,0,0,0,0,0,0,1,85000.0
5.0,10.0,19.0,6.0,4.0,1.0,6,10.0,3,1,1,0,0,0,0,0,0,0,0,1,79481.0
31.0,43.0,38.0,5.0,5.0,2.0,9,10.0,5,0,1,1,1,0,1,0,0,0,0,1,117197.0
13.0,13.0,13.0,6.0,4.0,2.0,3,0.0,2,0,0,0,0,0,0,0,0,0,0,1,102036.0
15.0,26.0,10.0,6.0,5.0,1.0,6,1.0,4,0,0,0,1,0,0,0,0,0,0,1,67150.0
24.0,24.0,10.0,4.0,3.0,0.0,6,0.0,4,1,1,0,1,0,0,0,0,0,0,0,304044.0
17.0,22.0,22.0,6.0,4.0,1.0,6,0.0,7,1,1,0,1,1,0,0,1,0,0,0,48333.0
7.0,8.0,7.0,5.0,6.0,0.0,10,0.0,3,0,1,1,0,0,0,0,0,0,0,1,110000.0
4.0,10.0,4.0,5.0,3.0,0.0,10,0.0,7,1,1,1,1,0,0,0,0,0,0,1,170000.0
9.0,11.0,10.0,5.0,9.0,0.0,10,2.0,1,0,0,1,0,0,0,0,0,0,0,1,200000.0
5.0,10.0,5.0,6.0,7.0,1.0,3,1.0,8,1,1,0,1,0,1,1,0,1,0,1,85925.0
5.0,8.0,2.0,6.0,7.0,1.0,6,10.0,6,1,0,0,1,0,0,0,0,0,1,1,38666.0
15.0,20.0,10.0,5.0,5.0,0.0,9,2.0,6,0,1,1,1,0,1,0,0,0,0,1,86624.0
9.0,13.0,9.0,5.0,7.0,0.0,10,0.0,7,0,1,1,1,0,1,0,0,1,0,1,300000.0
3.0,15.0,5.0,5.0,5.0,1.0,2,2.0,2,0,1,0,0,0,0,0,0,0,0,1,80220.0
7.0,10.0,7.0,7.0,4.0,1.0,6,0.0,6,1,1,1,0,1,0,0,0,0,0,1,112309.0
12.0,18.0,10.0,7.0,2.0,1.0,6,10.0,5,1,0,0,0,0,0,1,0,0,0,1,85925.0
11.0,16.0,10.0,5.0,2.0,0.0,6,1.0,5,0,1,0,1,0,1,0,1,0,0,0,107406.0
10.0,15.0,10.0,6.0,5.0,0.0,6,3.0,3,1,0,0,1,0,0,0,1,0,0,1,19479.0
2.0,8.0,7.0,6.0,4.0,2.0,6,10.0,7,1,0,0,0,0,0,1,0,0,0,1,62296.0
8.0,8.0,8.0,5.0,7.0,1.0,10,1.0,3,1,0,0,0,0,0,0,0,0,0,1,116000.0
6.0,8.0,6.0,5.0,4.0,0.0,4,7.0,2,0,0,0,0,0,0,0,0,0,0,1,15074.0
17.0,19.0,17.0,5.0,4.0,0.0,6,1.0,7,1,1,0,0,0,0,1,0,0,0,1,180000.0
9.0,14.0,9.0,5.0,6.0,0.0,7,1.0,1,1,0,0,0,0,0,0,0,0,0,1,80555.0
10.0,18.0,10.0,6.0,4.0,0.0,6,10.0,4,0,1,1,0,0,0,0,0,0,0,1,66000.0
14.0,17.0,15.0,6.0,2.0,1.0,6,10.0,13,1,1,0,1,1,0,1,0,0,0,1,26406.0
13.0,20.0,10.0,7.0,7.0,1.0,9,10.0,3,1,0,0,0,0,1,1,0,0,0,1,63765.0
0.0,5.0,10.0,3.0,9.0,2.0,6,10.0,3,1,0,0,0,0,1,0,1,0,0,1,21564.0
26.0,30.0,10.0,5.0,1.0,0.0,9,0.0,8,1,1,0,1,0,1,0,0,1,1,0,101910.0
24.0,36.0,10.0,6.0,1.0,0.0,6,10.0,6,0,0,0,1,0,0,0,0,0,1,0,11204.0
2.0,8.0,2.0,6.0,3.0,1.0,6,1.0,8,1,1,1,1,0,0,0,1,0,1,1,108631.0
40.0,44.0,45.0,5.0,5.0,1.0,9,1.0,3,0,1,0,0,0,0,0,1,0,0,1,52229.0
3.0,7.0,3.0,6.0,4.0,0.0,9,0.0,5,1,1,0,1,0,0,0,0,0,0,1,61146.0
4.0,6.0,4.0,3.0,6.0,1.0,9,1.0,4,0,1,1,0,0,0,0,0,0,0,1,63694.0
21.0,25.0,25.0,6.0,5.0,1.0,3,4.0,7,1,0,0,1,1,0,0,1,1,0,1,91295.0
8.0,15.0,8.0,5.0,5.0,2.0,6,1.0,10,1,1,1,1,1,0,0,0,1,0,1,88699.0
6.0,9.0,6.0,5.0,4.0,0.0,6,1.0,3,0,0,1,0,0,0,0,0,1,0,1,40814.0
3.0,6.0,3.0,5.0,9.0,0.0,4,2.0,7,1,1,1,1,1,0,1,0,1,0,1,16151.0
5.0,7.0,10.0,5.0,5.0,0.0,6,2.0,3,0,1,1,0,0,0,0,0,0,0,1,16402.0
15.0,18.0,15.0,5.0,1.0,2.0,9,7.0,3,0,0,0,0,0,0,0,0,0,1,1,38216.0
7.0,11.0,7.0,6.0,4.0,0.0,8,1.0,8,1,1,1,0,1,0,0,0,0,0,1,75000.0
4.0,6.0,6.0,3.0,7.0,1.0,0,0.0,7,1,1,0,1,1,0,0,1,0,0,1,15665.0
10.0,12.0,10.0,6.0,4.0,2.0,3,10.0,5,1,0,0,1,0,0,0,0,0,0,1,63031.0
9.0,13.0,10.0,5.0,4.0,1.0,6,10.0,3,1,0,0,0,0,0,1,0,0,0,0,113334.0
4.0,5.0,4.0,5.0,3.0,0.0,8,2.0,3,0,1,1,0,0,0,0,0,0,0,1,36000.0
18.0,20.0,20.0,5.0,9.0,0.0,10,0.0,2,0,0,1,0,1,0,0,0,0,0,1,185000.0
8.0,9.0,10.0,7.0,5.0,1.0,10,0.0,6,1,1,0,0,1,1,0,0,0,0,1,105000.0
8.0,10.0,10.0,5.0,5.0,0.0,6,2.0,3,0,1,0,0,0,1,0,0,0,0,1,61513.0
32.0,46.0,35.0,6.0,2.0,0.0,9,10.0,12,1,1,1,1,1,0,1,0,1,1,1,50955.0
8.0,12.0,10.0,5.0,6.0,1.0,3,7.0,1,0,0,0,0,0,0,0,0,0,0,1,109554.0
1.0,8.0,10.0,5.0,9.0,2.0,10,8.0,6,1,0,0,0,1,1,1,0,0,0,1,85000.0
2.0,10.0,2.0,3.0,7.0,2.0,1,10.0,11,1,1,0,1,1,0,1,0,0,0,1,25443.0
9.0,11.0,10.0,6.0,6.0,0.0,8,1.0,4,0,0,0,1,1,0,0,0,1,0,1,89000.0
5.0,9.0,10.0,5.0,8.0,1.0,10,1.0,3,0,0,0,1,1,0,0,0,0,0,1,94000.0
3.0,13.0,3.0,3.0,5.0,1.0,7,0.0,7,0,1,1,1,0,0,0,1,1,0,1,30074.0
4.0,8.0,4.0,6.0,3.0,0.0,8,10.0,3,0,0,0,0,0,1,0,0,0,1,1,37026.0
16.0,25.0,16.0,7.0,9.0,0.0,7,10.0,9,1,1,0,1,1,0,1,1,0,0,1,64444.0
24.0,25.0,25.0,3.0,5.0,2.0,10,10.0,7,0,1,0,1,0,0,0,1,0,0,1,87000.0
9.0,14.0,10.0,6.0,5.0,1.0,6,5.0,3,1,0,0,0,0,0,0,0,0,0,1,155984.0
8.0,11.0,8.0,6.0,9.0,0.0,6,0.0,3,1,0,0,1,0,1,0,0,0,0,1,71765.0
6.0,6.0,10.0,6.0,4.0,0.0,6,0.0,3,0,1,1,0,0,0,0,0,0,0,1,40000.0
8.0,12.0,10.0,6.0,4.0,0.0,8,1.0,1,0,0,0,0,1,0,0,0,0,0,1,60000.0
15.0,24.0,15.0,6.0,7.0,0.0,6,4.0,3,1,0,0,1,0,0,0,0,0,0,1,127692.0
12.0,12.0,10.0,5.0,3.0,0.0,0,1.0,14,1,1,0,1,1,1,1,1,0,0,1,22378.0
28.0,40.0,10.0,5.0,2.0,0.0,10,0.0,6,1,1,1,1,0,1,0,0,0,0,0,240000.0
10.0,15.0,10.0,5.0,4.0,1.0,3,0.0,5,0,1,1,1,0,1,0,0,0,0,1,70888.0
12.0,18.0,12.0,6.0,2.0,0.0,2,0.0,10,1,1,1,1,0,1,0,0,0,0,0,51555.0
4.0,8.0,5.0,6.0,9.0,0.0,8,5.0,4,1,0,0,0,0,0,0,0,0,0,1,37800.0
4.0,7.0,10.0,6.0,7.0,0.0,8,10.0,4,1,1,0,0,0,0,0,0,0,0,1,24684.0
4.0,13.0,4.0,5.0,9.0,1.0,10,9.0,11,1,1,0,0,0,0,1,0,1,0,1,120000.0
7.0,15.0,6.0,6.0,7.0,1.0,6,10.0,4,0,1,1,0,0,1,0,0,0,0,1,96000.0
16.0,16.0,10.0,6.0,7.0,0.0,10,10.0,3,0,1,0,1,0,0,0,1,0,0,1,121000.0
6.0,7.0,10.0,5.0,4.0,0.0,6,0.0,5,1,1,0,0,0,0,0,0,0,0,0,71407.0
15.0,28.0,15.0,3.0,2.0,1.0,6,1.0,4,0,1,0,1,0,0,0,1,0,0,1,51542.0
6.0,10.0,10.0,6.0,5.0,2.0,4,8.0,6,1,0,0,1,0,0,0,1,0,0,1,11963.0
10.0,17.0,10.0,5.0,5.0,1.0,6,1.0,6,1,1,0,1,1,0,0,0,0,0,1,54240.0
13.0,34.0,17.0,6.0,8.0,0.0,9,2.0,8,1,1,0,1,1,0,1,0,0,0,1,114649.0
9.0,13.0,9.0,5.0,9.0,1.0,6,0.0,4,0,0,1,0,1,0,0,0,0,0,1,118265.0
2.0,5.0,2.0,5.0,9.0,1.0,4,10.0,2,0,0,0,0,0,0,0,0,1,0,1,22731.0
12.0,18.0,10.0,3.0,1.0,2.0,6,0.0,7,0,1,1,1,0,0,1,0,0,0,0,10000.0
11.0,14.0,11.0,5.0,4.0,0.0,6,1.0,1,0,0,0,0,0,0,0,0,1,0,1,99581.0
34.0,40.0,32.0,5.0,4.0,1.0,10,10.0,3,1,0,0,0,0,0,1,0,0,0,1,275000.0
7.0,16.0,7.0,6.0,4.0,1.0,6,1.0,1,0,0,0,1,0,0,0,0,0,0,1,40814.0
40.0,40.0,10.0,5.0,5.0,0.0,10,7.0,4,0,1,0,1,0,1,0,0,0,0,1,140000.0
5.0,8.0,7.0,5.0,4.0,1.0,6,0.0,12,1,1,1,1,1,1,0,1,0,0,1,11628.0
7.0,12.0,7.0,5.0,4.0,2.0,10,9.0,4,1,0,0,0,0,0,1,0,0,0,1,172000.0
20.0,20.0,10.0,3.0,6.0,1.0,2,0.0,8,0,1,1,1,0,1,0,0,0,0,0,64444.0
2.0,6.0,2.0,5.0,6.0,1.0,4,0.0,5,0,1,0,1,1,0,0,0,1,0,1,11963.0
4.0,10.0,4.0,5.0,5.0,1.0,9,0.0,5,0,1,1,0,0,1,0,0,0,0,1,57325.0
18.0,35.0,24.0,6.0,4.0,0.0,6,8.0,3,0,0,0,1,0,1,1,0,0,0,1,56022.0
34.0,44.0,10.0,2.0,1.0,2.0,6,9.0,3,0,0,0,0,0,0,1,0,0,0,0,76307.0
1.0,1.0,1.0,6.0,2.0,0.0,6,7.0,3,0,0,1,0,0,0,0,0,0,0,1,19333.0
8.0,12.0,7.0,5.0,9.0,0.0,4,2.0,4,0,1,0,0,0,0,0,1,0,0,1,41274.0
7.0,11.0,8.0,6.0,5.0,2.0,6,10.0,6,1,1,0,1,0,0,0,1,0,0,1,10080.0
25.0,40.0,30.0,5.0,7.0,0.0,10,1.0,9,1,1,1,1,1,1,0,0,0,0,1,140000.0
0.0,7.0,10.0,3.0,6.0,2.0,9,9.0,13,1,1,1,1,1,0,1,0,1,1,1,29299.0
27.0,30.0,10.0,4.0,2.0,0.0,10,0.0,4,0,1,0,1,0,1,0,0,0,0,1,108000.0
6.0,6.0,10.0,7.0,2.0,1.0,6,1.0,1,0,0,0,0,1,0,0,0,0,0,1,72532.0
16.0,20.0,15.0,5.0,4.0,0.0,6,0.0,6,0,1,1,1,0,1,0,0,1,0,1,100000.0
6.0,7.0,10.0,5.0,4.0,2.0,4,9.0,1,0,0,0,0,0,0,0,0,0,0,1,11963.0
15.0,20.0,10.0,3.0,7.0,2.0,6,1.0,7,1,0,0,1,0,1,1,0,0,0,1,52853.0
8.0,15.0,15.0,6.0,7.0,1.0,10,10.0,9,1,1,0,1,0,0,0,0,0,1,1,100000.0
9.0,11.0,10.0,5.0,3.0,1.0,10,0.0,7,0,1,0,1,0,0,0,0,0,0,1,161000.0
12.0,25.0,12.0,2.0,7.0,1.0,6,2.0,5,0,1,1,0,0,0,0,1,1,0,1,62000.0
5.0,10.0,4.0,6.0,5.0,1.0,2,0.0,5,1,0,1,0,1,0,0,0,0,0,1,82703.0
6.0,6.0,6.0,6.0,2.0,1.0,2,6.0,2,1,0,0,0,1,0,0,0,0,0,1,76258.0
27.0,35.0,27.0,6.0,9.0,0.0,10,10.0,5,1,1,0,0,0,0,1,0,0,0,1,250000.0
5.0,10.0,10.0,7.0,3.0,1.0,3,9.0,4,1,0,0,0,1,0,1,0,0,0,1,118147.0
18.0,23.0,10.0,5.0,1.0,1.0,6,0.0,7,1,1,0,1,0,1,0,1,0,0,0,120000.0
22.0,25.0,26.0,5.0,3.0,0.0,10,0.0,7,0,1,1,1,0,0,0,0,0,0,1,120000.0
1.0,5.0,1.0,3.0,4.0,1.0,3,0.0,9,1,1,0,1,1,1,1,0,0,0,0,15466.0
4.0,12.0,4.0,5.0,5.0,0.0,10,10.0,9,1,1,1,1,0,0,0,0,1,1,0,90000.0
29.0,42.0,29.0,6.0,6.0,1.0,6,0.0,14,1,1,1,1,0,1,1,1,1,0,1,96666.0
23.0,27.0,10.0,5.0,5.0,0.0,7,10.0,2,1,0,0,0,0,1,0,0,0,0,1,69814.0
30.0,34.0,30.0,5.0,4.0,0.0,1,0.0,8,1,1,1,0,0,1,1,0,0,0,1,83597.0
14.0,17.0,14.0,6.0,2.0,1.0,0,0.0,8,1,1,1,1,0,1,0,1,0,0,1,35806.0
1.0,7.0,1.0,5.0,4.0,1.0,6,1.0,2,0,0,0,0,0,1,1,0,0,0,1,18259.0
5.0,14.0,10.0,5.0,5.0,1.0,6,0.0,7,0,1,1,1,0,1,0,0,0,0,1,52477.0
15.0,20.0,15.0,3.0,3.0,2.0,6,10.0,4,0,1,1,0,1,0,0,1,0,0,1,53703.0
3.0,5.0,3.0,2.0,2.0,0.0,6,10.0,8,1,1,1,0,1,1,0,0,0,0,0,10368.0
27.0,32.0,10.0,6.0,7.0,2.0,6,10.0,3,1,0,0,0,0,0,1,0,0,0,1,110622.0
15.0,15.0,15.0,3.0,5.0,0.0,10,0.0,12,1,1,1,1,1,1,1,0,0,0,1,209000.0
7.0,14.0,7.0,6.0,6.0,0.0,3,1.0,1,1,0,0,0,0,0,0,0,0,0,1,75184.0
8.0,10.0,10.0,5.0,4.0,0.0,6,7.0,5,0,1,1,0,1,0,0,0,0,0,1,63000.0
12.0,19.0,12.0,6.0,7.0,0.0,0,2.0,5,0,1,1,0,1,0,0,0,0,0,1,69000.0
3.0,10.0,3.0,2.0,8.0,1.0,6,0.0,8,1,1,1,1,0,0,0,1,1,0,1,23114.0
20.0,30.0,29.0,2.0,5.0,0.0,6,10.0,5,1,1,0,0,0,0,0,1,0,0,1,83904.0
12.0,16.0,16.0,6.0,6.0,1.0,6,10.0,5,1,1,0,0,1,0,0,0,1,0,1,107406.0
14.0,18.0,14.0,5.0,4.0,0.0,10,10.0,3,1,0,0,0,0,0,0,0,0,1,1,181000.0
3.0,10.0,3.0,5.0,3.0,1.0,6,1.0,18,1,1,1,1,1,0,1,1,1,1,0,52853.0
14.0,30.0,10.0,7.0,9.0,1.0,9,10.0,6,1,0,0,0,0,0,0,0,0,0,1,48407.0
4.0,10.0,5.0,5.0,9.0,0.0,4,4.0,9,0,1,1,0,1,1,1,0,1,0,1,35890.0
12.0,15.0,10.0,6.0,5.0,0.0,2,1.0,4,1,1,0,1,0,0,0,0,0,0,1,69814.0
9.0,11.0,11.0,2.0,5.0,0.0,3,0.0,3,0,0,1,1,0,0,0,0,0,0,1,247034.0
3.0,7.0,3.0,6.0,3.0,1.0,9,8.0,3,1,0,0,1,0,0,0,0,0,1,1,114649.0
17.0,20.0,17.0,3.0,3.0,0.0,3,1.0,2,0,0,0,0,0,0,0,0,0,0,1,91295.0
12.0,15.0,15.0,6.0,9.0,1.0,3,1.0,5,1,0,0,1,1,0,1,0,0,0,1,96666.0
12.0,14.0,12.0,3.0,6.0,0.0,0,5.0,6,1,0,1,0,0,0,1,0,0,0,1,44354.0
6.0,8.0,6.0,3.0,4.0,2.0,3,6.0,7,1,1,0,1,1,0,0,0,0,1,1,62296.0
22.0,26.0,26.0,6.0,5.0,1.0,2,1.0,12,1,1,0,1,0,1,1,1,0,0,1,49407.0
7.0,17.0,7.0,6.0,7.0,0.0,3,1.0,1,0,0,0,0,0,1,0,0,0,0,1,73036.0
2.0,3.0,2.0,7.0,5.0,0.0,9,1.0,4,1,0,0,0,1,0,0,0,0,0,1,61146.0
12.0,16.0,10.0,6.0,9.0,0.0,6,1.0,3,0,1,0,1,0,0,0,0,1,0,1,23735.0
3.0,7.0,3.0,3.0,3.0,2.0,6,1.0,5,0,0,0,1,1,0,0,0,0,1,1,53703.0
15.0,18.0,15.0,6.0,9.0,1.0,3,9.0,3,1,0,0,0,0,0,1,0,0,0,1,83777.0
5.0,10.0,10.0,5.0,2.0,0.0,1,0.0,6,1,1,0,0,1,0,0,0,1,1,1,168000.0
10.0,13.0,10.0,5.0,1.0,0.0,6,0.0,9,0,1,1,1,0,0,0,1,1,1,0,43155.0
8.0,10.0,10.0,7.0,7.0,1.0,8,10.0,1,1,0,0,0,0,0,0,0,0,0,1,139628.0
0.0,2.0,10.0,3.0,4.0,2.0,1,10.0,3,1,1,0,0,0,0,0,0,0,1,1,21808.0
21.0,25.0,10.0,5.0,5.0,0.0,10,1.0,7,1,1,1,1,1,0,0,0,0,0,1,177000.0
7.0,11.0,7.0,5.0,5.0,1.0,6,1.0,6,1,0,1,1,0,0,0,0,0,0,1,14000.0
8.0,10.0,20.0,5.0,3.0,0.0,6,6.0,4,0,0,0,0,0,0,1,0,0,1,1,79894.0
14.0,17.0,14.0,5.0,5.0,2.0,4,1.0,2,0,1,0,0,0,0,0,1,0,0,1,21127.0
3.0,6.0,3.0,5.0,7.0,2.0,10,10.0,5,1,0,0,0,0,0,1,0,0,0,1,20000.0
3.0,7.0,3.0,5.0,5.0,1.0,6,1.0,1,0,1,0,0,0,0,0,0,0,0,1,16336.0
11.0,14.0,11.0,5.0,4.0,0.0,10,6.0,4,0,1,0,0,0,0,0,0,0,0,1,161000.0
10.0,20.0,10.0,7.0,4.0,2.0,6,3.0,4,1,0,0,1,0,0,1,0,0,0,1,59520.0
4.0,9.0,2.0,5.0,4.0,1.0,6,0.0,6,1,1,1,1,1,0,0,0,0,0,1,75976.0
7.0,8.0,7.0,6.0,7.0,0.0,6,8.0,2,1,0,0,0,0,0,0,0,0,0,1,59073.0
3.0,6.0,2.0,5.0,4.0,1.0,0,0.0,6,1,1,1,1,0,0,0,0,0,1,1,20514.0
6.0,10.0,10.0,5.0,6.0,0.0,0,0.0,8,1,1,1,1,1,0,0,0,1,0,1,40095.0
1.0,8.0,1.0,5.0,6.0,1.0,5,1.0,4,0,1,0,1,0,0,0,1,0,0,1,45111.0
9.0,15.0,10.0,3.0,2.0,2.0,3,0.0,6,0,1,1,1,0,1,0,0,0,0,1,53703.0
8.0,18.0,8.0,1.0,2.0,0.0,6,0.0,1,0,0,0,0,0,0,1,0,0,0,1,36590.0
2.0,3.0,3.0,2.0,7.0,0.0,1,2.0,4,0,1,1,0,0,0,0,0,0,1,1,50885.0
20.0,35.0,10.0,7.0,9.0,1.0,10,3.0,1,0,0,0,0,0,0,0,0,0,0,1,160000.0
9.0,17.0,9.0,6.0,9.0,1.0,6,10.0,11,1,1,1,1,0,0,1,0,1,1,1,161554.0
8.0,9.0,7.0,2.0,4.0,1.0,3,0.0,6,1,1,1,0,0,0,0,0,1,1,1,77332.0
6.0,10.0,10.0,5.0,4.0,0.0,6,6.0,2,0,1,0,0,0,0,0,0,0,0,1,61866.0
1.0,4.0,10.0,4.0,2.0,1.0,1,0.0,3,0,1,0,1,0,0,0,0,0,0,1,35620.0
16.0,24.0,16.0,4.0,6.0,2.0,10,0.0,5,0,0,0,1,0,1,0,0,0,0,1,140000.0
1.0,5.0,1.0,3.0,2.0,1.0,10,0.0,6,1,1,0,0,1,1,0,1,0,0,0,12000.0
16.0,33.0,21.0,6.0,7.0,0.0,6,2.0,9,1,1,1,1,1,0,0,1,0,0,1,104476.0
8.0,36.0,10.0,7.0,2.0,1.0,2,1.0,1,1,0,0,0,0,0,0,0,0,0,1,26852.0
6.0,3.0,10.0,5.0,2.0,0.0,8,1.0,2,1,0,0,0,0,0,0,0,1,0,1,50000.0
3.0,8.0,10.0,5.0,3.0,2.0,6,2.0,5,1,1,1,0,0,0,0,1,0,0,1,49549.0
34.0,43.0,33.0,5.0,5.0,0.0,10,0.0,6,1,1,0,0,1,0,0,0,0,0,1,180000.0
5.0,9.0,5.0,6.0,5.0,1.0,2,2.0,4,0,1,1,1,0,0,0,0,0,0,1,49407.0
14.0,25.0,14.0,7.0,5.0,2.0,1,1.0,4,0,0,0,0,0,0,1,0,0,1,1,166467.0
7.0,17.0,7.0,5.0,8.0,2.0,9,6.0,3,0,0,0,1,0,1,0,0,1,0,1,114649.0
2.0,10.0,1.0,6.0,3.0,1.0,9,1.0,6,1,0,0,1,0,0,0,0,0,1,1,50955.0
35.0,40.0,10.0,2.0,4.0,1.0,9,0.0,8,0,1,1,1,0,1,0,0,0,0,0,140127.0
7.0,10.0,10.0,5.0,1.0,1.0,4,0.0,2,1,0,0,0,0,0,0,0,0,0,0,10049.0
32.0,36.0,10.0,3.0,4.0,0.0,10,1.0,13,1,0,1,1,0,0,1,1,1,1,1,300000.0
7.0,11.0,7.0,5.0,7.0,1.0,5,4.0,2,1,0,0,0,0,0,0,0,0,0,1,104184.0
24.0,40.0,24.0,5.0,4.0,0.0,3,10.0,3,1,0,0,0,0,1,1,0,0,0,1,83777.0
2.0,6.0,2.0,5.0,7.0,1.0,10,8.0,4,1,0,0,0,0,0,1,0,0,0,1,65000.0
9.0,11.0,10.0,5.0,5.0,0.0,6,0.0,5,0,1,1,1,0,1,0,0,0,0,1,64444.0
23.0,25.0,10.0,5.0,7.0,1.0,10,0.0,4,0,1,0,1,0,1,0,0,0,0,1,107271.0
15.0,26.0,15.0,5.0,4.0,1.0,6,1.0,4,0,0,0,1,1,0,0,0,1,0,1,131036.0
29.0,32.0,29.0,3.0,9.0,0.0,10,0.0,6,0,1,1,0,0,0,0,0,0,0,1,150000.0
15.0,17.0,16.0,6.0,5.0,2.0,6,8.0,1,1,0,0,0,0,0,0,0,0,0,1,83777.0
6.0,8.0,10.0,5.0,6.0,1.0,10,10.0,2,0,0,0,0,0,0,0,0,0,0,1,152300.0
30.0,30.0,10.0,3.0,8.0,0.0,10,10.0,10,1,1,0,1,1,0,0,1,0,0,1,130000.0
2.0,9.0,2.0,5.0,4.0,2.0,9,8.0,4,0,1,0,1,0,1,0,0,0,0,1,44586.0
8.0,14.0,8.0,6.0,5.0,1.0,6,0.0,7,0,1,1,1,0,1,0,0,0,0,1,67666.0
5.0,10.0,5.0,6.0,6.0,0.0,6,1.0,2,1,0,0,0,0,0,0,0,1,0,1,53729.0
5.0,5.0,5.0,5.0,9.0,1.0,4,0.0,6,1,1,1,1,0,1,0,0,0,0,1,20936.0
11.0,18.0,11.0,5.0,6.0,1.0,10,0.0,2,0,0,1,0,0,1,0,0,0,0,1,110000.0
22.0,22.0,22.0,6.0,8.0,1.0,3,10.0,6,1,0,0,1,0,0,0,0,1,0,1,214812.0
30.0,42.0,30.0,4.0,3.0,0.0,1,0.0,3,0,1,0,0,0,0,0,1,0,0,1,87231.0
4.0,8.0,10.0,5.0,1.0,0.0,6,0.0,1,0,1,0,0,0,0,0,0,0,0,1,25893.0
20.0,20.0,10.0,4.0,4.0,1.0,10,0.0,8,0,1,1,0,1,1,0,0,0,0,1,200000.0
33.0,33.0,33.0,6.0,7.0,0.0,10,10.0,11,1,1,0,1,0,0,1,1,1,0,1,200000.0
3.0,15.0,10.0,6.0,9.0,1.0,3,2.0,10,0,1,1,1,1,1,1,1,1,0,1,64444.0
12.0,20.0,12.0,5.0,2.0,1.0,10,0.0,13,1,1,1,1,1,1,0,1,0,0,0,150000.0
4.0,7.0,10.0,5.0,2.0,2.0,6,0.0,6,0,1,1,1,0,1,0,0,0,0,1,57091.0
6.0,10.0,28.0,4.0,8.0,1.0,6,8.0,4,0,0,0,1,0,1,0,0,0,0,1,128829.0
4.0,5.0,12.0,7.0,5.0,2.0,10,1.0,2,1,0,0,0,1,0,0,0,0,0,1,190000.0
9.0,35.0,10.0,6.0,1.0,1.0,6,10.0,2,1,0,0,0,0,0,0,0,0,1,0,107406.0
8.0,11.0,11.0,5.0,7.0,0.0,2,1.0,2,0,0,1,0,0,1,0,0,0,0,1,51555.0
0.0,2.0,10.0,6.0,5.0,0.0,3,3.0,11,1,1,0,1,1,0,0,0,0,0,0,53435.0
19.0,31.0,19.0,5.0,2.0,0.0,10,0.0,2,0,0,0,1,0,0,0,0,1,0,1,160000.0
8.0,12.0,8.0,5.0,6.0,0.0,10,0.0,4,0,1,1,0,1,0,0,0,0,0,1,141000.0
6.0,6.0,7.0,2.0,3.0,2.0,6,2.0,3,1,1,1,0,0,0,0,0,0,0,1,57024.0
30.0,36.0,30.0,7.0,8.0,0.0,10,0.0,2,0,0,0,1,0,1,0,0,0,0,1,133000.0
40.0,45.0,40.0,5.0,8.0,0.0,9,10.0,3,1,0,0,1,0,0,0,0,0,0,1,147770.0
15.0,15.0,10.0,1.0,1.0,2.0,6,0.0,6,0,1,0,1,0,1,1,1,0,0,0,32222.0
12.0,15.0,12.0,5.0,4.0,2.0,6,0.0,7,1,1,0,1,0,1,0,0,0,0,1,73748.0
1.0,6.0,10.0,2.0,4.0,2.0,6,0.0,6,1,1,1,0,0,1,0,0,0,1,1,25181.0
5.0,12.0,5.0,5.0,4.0,0.0,6,0.0,7,0,1,1,1,1,1,0,0,0,0,1,55422.0
3.0,7.0,3.0,6.0,8.0,2.0,9,1.0,3,1,0,0,0,0,0,1,0,0,0,1,59872.0
5.0,5.0,6.0,5.0,4.0,0.0,4,1.0,2,1,1,0,0,0,0,0,0,0,0,1,40676.0
22.0,22.0,25.0,6.0,9.0,1.0,3,0.0,11,1,1,1,1,0,1,0,1,0,0,1,134258.0
7.0,8.0,8.0,5.0,8.0,1.0,3,3.0,2,1,0,0,1,0,0,0,0,0,0,1,85925.0
7.0,13.0,6.0,6.0,5.0,1.0,0,3.0,3,1,0,0,1,0,0,0,0,0,0,1,34314.0
18.0,21.0,18.0,3.0,5.0,1.0,10,4.0,3,1,0,0,1,0,0,0,0,0,0,1,160000.0
6.0,10.0,5.0,5.0,2.0,1.0,3,1.0,7,1,1,1,0,1,0,0,0,1,0,1,77332.0
8.0,15.0,10.0,6.0,4.0,0.0,6,1.0,5,0,1,0,1,0,0,0,0,1,1,1,187961.0
2.0,6.0,10.0,5.0,4.0,1.0,3,10.0,1,1,0,0,0,0,0,0,0,0,0,0,20407.0
3.0,5.0,3.0,6.0,8.0,0.0,8,1.0,6,1,1,0,1,0,0,1,0,0,0,1,36162.0
25.0,35.0,10.0,6.0,5.0,1.0,2,1.0,4,0,0,0,1,0,0,0,0,1,0,1,80555.0
17.0,25.0,17.0,5.0,6.0,0.0,1,8.0,6,1,0,1,0,0,0,1,0,0,0,1,94501.0
17.0,20.0,10.0,5.0,2.0,1.0,6,6.0,4,0,1,0,1,0,0,0,1,0,0,1,80000.0
22.0,34.0,10.0,7.0,1.0,1.0,5,10.0,9,1,1,0,1,0,0,0,0,0,0,0,53703.0
2.0,4.0,3.0,5.0,7.0,1.0,1,0.0,8,1,1,1,0,0,1,0,0,0,1,1,72693.0
7.0,10.0,7.0,5.0,2.0,0.0,6,0.0,5,0,1,0,1,0,0,0,1,0,0,1,18665.0
19.0,24.0,19.0,3.0,2.0,0.0,6,0.0,5,1,1,1,1,0,0,0,0,0,0,1,110000.0
9.0,15.0,9.0,5.0,5.0,0.0,6,0.0,8,1,1,1,1,1,0,0,0,0,0,1,93393.0
4.0,7.0,4.0,5.0,5.0,1.0,6,0.0,6,0,0,1,0,0,1,0,0,0,1,1,90783.0
2.0,6.0,2.0,5.0,7.0,1.0,6,4.0,4,1,1,0,1,0,0,0,0,0,0,1,10171.0
0.0,13.0,10.0,6.0,9.0,1.0,2,0.0,4,0,1,1,0,0,0,0,0,0,1,1,18044.0
4.0,7.0,4.0,2.0,5.0,1.0,3,0.0,4,0,1,0,1,0,1,0,0,0,0,1,53703.0
1.0,5.0,10.0,3.0,1.0,1.0,3,0.0,6,1,1,0,1,0,0,0,0,0,0,0,42962.0
3.0,7.0,3.0,7.0,5.0,1.0,2,9.0,4,1,0,0,0,0,0,1,0,0,1,1,39740.0
6.0,8.0,7.0,2.0,2.0,1.0,2,0.0,7,1,1,1,0,0,0,0,1,0,1,0,163043.0
12.0,12.0,12.0,5.0,7.0,0.0,6,6.0,17,1,1,1,1,1,1,1,1,0,0,1,23920.0
10.0,12.0,10.0,6.0,2.0,1.0,2,0.0,2,0,0,0,0,0,0,0,0,0,0,1,75184.0
10.0,20.0,20.0,7.0,2.0,1.0,6,10.0,8,1,0,1,1,0,0,1,0,1,1,0,43201.0
11.0,18.0,12.0,6.0,5.0,0.0,10,1.0,12,1,1,1,1,0,0,0,0,0,1,1,475000.0
4.0,11.0,10.0,5.0,4.0,1.0,10,9.0,6,1,0,0,0,1,0,1,0,0,1,1,145000.0
10.0,20.0,20.0,5.0,5.0,0.0,6,0.0,0,0,0,0,0,0,0,0,0,0,0,1,32345.0
5.0,15.0,4.0,5.0,4.0,2.0,3,0.0,2,1,0,0,0,0,0,0,0,0,0,1,61222.0
25.0,38.0,25.0,3.0,7.0,0.0,10,10.0,8,1,0,0,1,0,0,0,0,1,1,1,306000.0
13.0,15.0,10.0,6.0,7.0,2.0,6,1.0,3,0,0,0,1,1,0,0,0,0,0,1,43435.0
25.0,40.0,10.0,2.0,1.0,1.0,7,10.0,5,1,1,0,1,0,0,0,1,0,0,1,12889.0
5.0,13.0,5.0,6.0,5.0,1.0,6,0.0,5,0,1,0,1,1,0,0,1,0,0,1,33833.0
4.0,4.0,10.0,5.0,6.0,0.0,6,7.0,7,0,1,1,0,1,1,0,0,0,0,1,27080.0
7.0,7.0,12.0,6.0,4.0,1.0,5,1.0,2,1,0,0,0,0,0,0,0,0,1,1,88073.0
4.0,7.0,10.0,6.0,4.0,0.0,8,0.0,1,0,0,0,0,1,0,0,0,0,0,1,60000.0
7.0,7.0,7.0,5.0,4.0,1.0,6,0.0,5,0,1,0,1,0,1,0,0,0,0,1,11040.0
5.0,9.0,5.0,5.0,9.0,0.0,7,3.0,3,1,0,0,1,0,0,0,0,0,0,1,69814.0
19.0,32.0,20.0,6.0,7.0,0.0,9,1.0,12,1,1,1,1,0,0,1,0,1,1,1,254776.0
5.0,8.0,5.0,5.0,5.0,1.0,6,0.0,4,1,1,1,0,0,0,0,0,0,0,1,47692.0
34.0,36.0,10.0,7.0,6.0,1.0,0,10.0,9,1,1,1,1,1,0,0,0,0,1,1,93244.0
13.0,13.0,13.0,2.0,4.0,0.0,9,0.0,11,1,1,1,1,0,1,0,1,0,1,1,36000.0
2.0,15.0,4.0,6.0,6.0,0.0,10,1.0,7,1,0,1,1,0,0,0,0,1,0,1,165000.0
10.0,5.0,10.0,5.0,4.0,1.0,6,0.0,6,1,1,1,0,0,0,0,1,0,0,1,81679.0
6.0,11.0,6.0,5.0,8.0,1.0,1,9.0,10,1,0,0,0,0,1,1,0,0,0,1,87231.0
3.0,6.0,3.0,6.0,4.0,0.0,8,0.0,4,0,1,1,1,0,0,0,0,0,0,1,15000.0
9.0,11.0,11.0,2.0,5.0,1.0,3,5.0,6,0,1,0,1,0,1,0,0,0,0,1,73036.0
0.0,11.0,10.0,5.0,4.0,1.0,3,0.0,4,0,0,0,0,1,0,0,0,1,1,0,19333.0
20.0,24.0,20.0,5.0,5.0,2.0,10,8.0,6,0,1,1,1,0,1,0,0,0,0,1,225000.0
0.0,4.0,1.0,5.0,9.0,2.0,10,9.0,7,1,1,1,0,0,0,1,0,0,0,1,61000.0
16.0,19.0,18.0,3.0,9.0,0.0,6,0.0,3,0,0,1,1,0,1,0,0,0,0,1,177220.0
4.0,9.0,4.0,5.0,4.0,1.0,6,0.0,12,1,1,1,0,1,0,1,0,0,1,0,53703.0
3.0,7.0,3.0,2.0,2.0,0.0,6,0.0,8,0,1,1,1,1,0,0,1,1,0,0,32222.0
17.0,18.0,10.0,5.0,4.0,0.0,4,0.0,4,0,1,0,1,0,0,0,1,0,0,1,22132.0
17.0,20.0,10.0,5.0,5.0,0.0,7,7.0,1,0,0,0,0,0,0,0,0,0,0,1,54777.0
5.0,20.0,8.0,6.0,5.0,1.0,6,10.0,10,1,1,0,1,1,0,1,0,1,0,1,30884.0
6.0,10.0,6.0,5.0,6.0,1.0,6,4.0,2,0,0,0,0,0,0,0,0,0,0,1,52629.0
2.0,6.0,2.0,5.0,5.0,0.0,6,1.0,3,0,0,0,1,1,0,0,0,0,0,1,24762.0
7.0,7.0,0.0,3.0,4.0,1.0,3,5.0,3,0,1,0,0,0,0,0,0,1,0,1,78407.0
20.0,25.0,20.0,3.0,1.0,0.0,6,6.0,3,1,1,0,1,0,0,0,0,0,0,1,120000.0
5.0,7.0,10.0,5.0,9.0,0.0,8,2.0,0,0,0,0,0,0,0,0,0,0,0,1,27000.0
40.0,44.0,40.0,5.0,9.0,0.0,10,1.0,1,0,0,0,0,0,0,0,0,0,0,1,165000.0
10.0,22.0,10.0,5.0,8.0,0.0,6,10.0,6,1,1,0,0,0,0,0,0,1,0,1,145345.0
5.0,10.0,5.0,5.0,5.0,2.0,6,0.0,2,0,0,0,1,0,1,0,0,0,0,1,30000.0
15.0,25.0,20.0,6.0,4.0,1.0,6,6.0,3,0,1,0,0,0,0,0,1,0,0,0,56710.0
16.0,17.0,16.0,4.0,8.0,2.0,6,0.0,7,0,1,1,1,0,1,0,0,0,0,1,64444.0
3.0,13.0,3.0,5.0,6.0,0.0,6,0.0,8,1,1,0,1,0,0,1,0,0,0,1,46276.0
2.0,3.0,10.0,5.0,5.0,1.0,2,0.0,7,1,1,0,0,0,0,0,1,0,0,1,37592.0
14.0,17.0,14.0,6.0,5.0,1.0,1,1.0,2,0,0,0,1,0,1,0,0,0,0,1,105405.0
4.0,9.0,10.0,5.0,9.0,1.0,10,9.0,6,1,1,0,0,1,0,1,0,0,0,1,100000.0
9.0,11.0,9.0,5.0,2.0,0.0,10,2.0,6,0,1,1,1,0,0,0,0,1,0,1,84000.0
9.0,9.0,17.0,6.0,9.0,1.0,6,0.0,4,1,1,0,1,0,0,0,0,0,0,1,61866.0
10.0,14.0,10.0,5.0,7.0,2.0,4,1.0,5,0,0,0,1,1,0,0,0,1,0,1,83744.0
10.0,13.0,7.0,6.0,4.0,1.0,3,0.0,2,0,1,1,0,0,0,0,0,0,0,1,85925.0
9.0,12.0,9.0,7.0,5.0,1.0,3,9.0,3,0,0,0,0,0,1,1,0,0,0,0,64444.0
25.0,20.0,10.0,3.0,5.0,0.0,7,0.0,6,0,1,1,1,0,1,0,0,0,0,1,59073.0
16.0,20.0,16.0,5.0,6.0,0.0,10,6.0,6,0,1,0,1,0,0,0,0,1,0,1,190000.0
8.0,10.0,10.0,5.0,7.0,2.0,10,0.0,3,0,1,0,1,0,0,0,0,0,0,1,80000.0
5.0,14.0,10.0,3.0,4.0,0.0,10,1.0,5,1,0,0,1,1,1,0,0,0,0,1,90000.0
22.0,22.0,35.0,6.0,9.0,0.0,10,10.0,5,0,1,0,1,0,1,0,0,0,0,1,138000.0
22.0,18.0,10.0,6.0,5.0,0.0,7,1.0,2,1,0,0,0,0,0,0,0,0,0,1,55851.0
9.0,14.0,10.0,5.0,4.0,0.0,8,1.0,2,0,0,0,1,0,1,0,0,0,0,1,77332.0
3.0,6.0,10.0,1.0,5.0,1.0,3,10.0,3,1,0,0,0,0,1,1,0,0,0,1,49407.0
2.0,5.0,10.0,7.0,5.0,2.0,7,2.0,4,0,1,1,0,0,1,0,0,0,0,1,16240.0
1.0,10.0,10.0,2.0,1.0,0.0,6,0.0,5,1,1,0,1,0,0,0,1,0,0,0,39947.0
11.0,15.0,15.0,3.0,5.0,0.0,6,0.0,5,0,1,1,1,0,0,0,0,0,0,1,80000.0
6.0,12.0,5.0,3.0,4.0,1.0,7,0.0,3,0,0,1,1,0,0,0,0,0,0,1,46185.0
4.0,7.0,10.0,5.0,5.0,0.0,8,10.0,1,0,0,0,0,0,1,0,0,0,0,1,37592.0
0.0,9.0,1.0,5.0,7.0,1.0,6,1.0,10,0,1,1,1,1,0,0,0,1,0,1,48955.0
8.0,14.0,10.0,5.0,6.0,1.0,6,0.0,9,0,1,0,1,1,1,1,1,0,0,1,76307.0
10.0,12.0,12.0,6.0,9.0,2.0,6,0.0,5,1,1,1,0,0,1,0,0,0,0,1,40134.0
1.0,11.0,2.0,5.0,4.0,0.0,10,10.0,7,0,1,0,0,1,1,0,0,0,1,1,95000.0
2.0,5.0,10.0,2.0,4.0,1.0,5,0.0,7,0,1,0,1,0,0,1,1,0,0,0,12889.0
6.0,15.0,20.0,3.0,2.0,1.0,3,0.0,6,0,1,1,1,1,0,0,1,0,0,1,34370.0
4.0,5.0,18.0,3.0,4.0,0.0,10,0.0,5,0,1,1,0,1,0,0,0,0,0,1,102000.0
7.0,10.0,7.0,6.0,4.0,1.0,7,10.0,6,0,1,1,0,0,0,1,0,0,0,1,44037.0
3.0,6.0,3.0,6.0,3.0,1.0,3,1.0,1,0,0,0,0,0,0,0,0,0,0,0,55164.0
13.0,13.0,10.0,5.0,7.0,2.0,6,8.0,1,0,0,0,0,0,1,0,0,0,0,1,102822.0
24.0,35.0,24.0,5.0,9.0,0.0,10,0.0,3,0,0,0,0,1,1,0,0,0,0,1,200000.0
4.0,10.0,4.0,3.0,4.0,0.0,6,10.0,9,0,1,1,1,0,1,0,1,0,0,1,42962.0
5.0,10.0,6.0,4.0,5.0,1.0,10,1.0,7,1,1,0,1,0,1,0,0,1,0,0,85000.0
30.0,41.0,30.0,2.0,4.0,0.0,6,10.0,4,0,1,0,0,0,0,0,0,0,0,0,72586.0
15.0,19.0,15.0,7.0,5.0,1.0,6,2.0,2,0,1,1,0,0,0,0,0,0,0,1,108002.0
1.0,4.0,1.0,3.0,4.0,2.0,1,0.0,9,1,1,1,1,0,1,1,0,0,0,1,42307.0
6.0,15.0,9.0,6.0,3.0,1.0,5,4.0,3,1,0,0,1,0,0,0,0,0,1,1,80555.0
20.0,29.0,10.0,7.0,7.0,1.0,6,10.0,5,0,0,0,1,0,0,0,0,0,1,1,30933.0
10.0,13.0,10.0,5.0,4.0,0.0,0,10.0,5,1,0,1,0,0,0,0,0,1,0,1,80000.0
13.0,14.0,10.0,5.0,3.0,2.0,6,0.0,4,1,1,0,0,1,0,0,0,0,0,1,49671.0
3.0,9.0,3.0,6.0,3.0,2.0,6,9.0,1,0,0,0,0,0,0,0,0,0,0,1,64444.0
11.0,17.0,13.0,3.0,4.0,1.0,3,0.0,6,0,0,1,1,1,0,0,0,0,0,1,77332.0
4.0,10.0,10.0,6.0,5.0,0.0,6,7.0,3,0,0,0,0,1,1,0,0,0,0,1,54375.0
6.0,10.0,10.0,3.0,5.0,0.0,7,10.0,5,0,1,0,0,0,0,0,1,0,0,1,56925.0
3.0,4.0,5.0,3.0,4.0,1.0,5,7.0,3,0,0,1,0,0,0,0,0,0,0,1,56925.0
21.0,24.0,21.0,6.0,5.0,0.0,0,0.0,7,0,1,1,0,1,0,1,1,0,1,1,205136.0
13.0,18.0,13.0,6.0,8.0,0.0,6,1.0,5,1,0,0,1,1,0,0,0,1,0,1,128887.0
12.0,15.0,15.0,7.0,5.0,0.0,0,6.0,6,1,0,0,0,0,0,1,0,0,0,1,242433.0
5.0,12.0,5.0,3.0,4.0,1.0,6,5.0,4,1,0,0,0,0,0,0,0,0,0,1,29101.0
2.0,6.0,10.0,5.0,7.0,0.0,6,1.0,7,1,1,0,0,1,0,0,0,1,0,1,34005.0
13.0,14.0,13.0,3.0,5.0,1.0,6,9.0,6,1,0,0,0,0,0,1,0,1,0,1,68548.0
4.0,8.0,10.0,6.0,2.0,2.0,6,1.0,6,1,0,0,1,1,0,1,0,0,0,1,59825.0
2.0,7.0,10.0,2.0,7.0,1.0,6,10.0,5,1,0,1,0,0,0,0,0,0,1,0,65514.0
15.0,25.0,15.0,5.0,7.0,0.0,6,8.0,2,1,0,0,0,0,0,0,0,0,1,1,91562.0
9.0,15.0,9.0,6.0,7.0,1.0,3,1.0,3,0,0,1,0,1,0,0,0,0,0,1,92369.0
7.0,10.0,10.0,5.0,6.0,1.0,4,1.0,8,1,1,0,1,1,0,1,0,1,0,1,59817.0
2.0,12.0,10.0,6.0,5.0,1.0,6,10.0,7,1,0,0,0,0,0,0,0,0,1,1,49603.0
5.0,10.0,5.0,5.0,9.0,1.0,6,0.0,16,1,1,1,1,1,1,1,1,0,0,1,72673.0
26.0,27.0,26.0,5.0,8.0,0.0,10,0.0,5,0,1,1,0,0,1,0,0,0,0,1,158000.0
2.0,7.0,2.0,5.0,9.0,1.0,10,10.0,15,1,1,1,1,1,1,1,0,1,1,1,165000.0
30.0,38.0,30.0,6.0,9.0,1.0,6,8.0,6,1,0,0,0,0,0,1,0,0,0,1,96666.0
3.0,4.0,4.0,3.0,4.0,2.0,3,8.0,6,1,1,0,0,1,1,0,0,0,0,0,21911.0
1.0,3.0,2.0,5.0,6.0,0.0,3,7.0,1,0,0,0,0,0,0,0,0,0,0,1,76258.0
10.0,24.0,10.0,6.0,2.0,0.0,7,10.0,8,0,1,1,1,1,0,0,0,0,0,0,75184.0
4.0,7.0,10.0,5.0,4.0,2.0,6,0.0,6,1,1,1,0,0,0,0,0,0,0,1,97143.0
5.0,11.0,5.0,5.0,2.0,2.0,6,0.0,3,0,1,0,0,0,1,0,0,0,0,1,46246.0
2.0,6.0,10.0,6.0,2.0,1.0,10,0.0,7,1,1,1,1,0,0,0,0,0,0,1,63000.0
12.0,15.0,16.0,5.0,7.0,1.0,10,0.0,9,1,1,1,1,0,1,0,0,0,0,1,142000.0
30.0,48.0,10.0,5.0,9.0,0.0,9,0.0,3,0,1,0,0,1,0,0,0,0,0,1,78980.0
25.0,30.0,25.0,5.0,2.0,0.0,10,1.0,8,1,1,1,1,0,0,0,0,0,1,1,180000.0
42.0,50.0,10.0,7.0,2.0,1.0,6,9.0,6,1,0,0,1,0,0,1,0,0,0,1,106771.0
10.0,20.0,15.0,5.0,3.0,0.0,10,10.0,3,0,1,1,0,0,0,0,0,0,0,0,30000.0
6.0,10.0,6.0,6.0,6.0,2.0,6,2.0,3,0,0,1,0,1,0,0,0,0,0,1,21968.0
4.0,15.0,8.0,6.0,8.0,0.0,10,10.0,8,1,1,0,1,0,0,0,0,0,1,0,30000.0
7.0,8.0,7.0,5.0,9.0,1.0,4,0.0,4,0,1,1,1,0,0,0,0,0,0,1,21534.0
6.0,10.0,10.0,5.0,2.0,2.0,10,0.0,3,0,1,0,0,0,0,0,1,0,0,1,63000.0
5.0,6.0,5.0,5.0,2.0,2.0,6,1.0,6,0,1,0,1,0,1,0,0,0,0,1,154440.0
10.0,13.0,10.0,5.0,4.0,1.0,10,6.0,5,0,1,1,1,0,1,0,0,0,0,1,138000.0
4.0,5.0,5.0,4.0,5.0,1.0,7,5.0,9,1,1,1,1,0,0,0,0,0,0,1,45111.0
8.0,13.0,8.0,5.0,3.0,1.0,6,2.0,4,0,1,1,0,0,1,0,0,0,0,1,105706.0
23.0,23.0,23.0,6.0,3.0,1.0,10,0.0,5,1,1,1,1,0,0,0,0,0,0,1,200000.0
2.0,7.0,2.0,2.0,4.0,1.0,6,0.0,4,0,1,1,0,1,0,0,0,0,0,1,56925.0
35.0,40.0,10.0,2.0,5.0,0.0,9,0.0,6,0,1,0,1,0,1,0,0,0,0,1,114649.0
10.0,15.0,10.0,5.0,7.0,0.0,9,10.0,6,0,1,1,0,1,0,0,1,0,0,1,67516.0
6.0,9.0,6.0,5.0,4.0,1.0,3,1.0,5,1,1,0,0,1,0,0,1,1,0,1,77332.0
14.0,14.0,20.0,5.0,5.0,2.0,6,8.0,6,0,0,0,1,1,1,0,0,0,1,1,47111.0
2.0,4.0,2.0,4.0,9.0,0.0,7,1.0,3,0,0,0,1,1,1,0,0,0,0,1,27926.0
5.0,6.0,6.0,3.0,5.0,1.0,6,1.0,12,1,1,1,1,0,0,1,0,1,0,1,107937.0
38.0,47.0,10.0,3.0,3.0,1.0,6,0.0,6,1,1,1,1,0,1,0,0,0,0,1,129602.0
28.0,35.0,28.0,6.0,5.0,1.0,10,7.0,2,0,0,0,0,0,0,0,0,0,0,1,230000.0
3.0,4.0,10.0,3.0,5.0,2.0,10,2.0,4,0,1,0,1,0,0,0,0,0,0,1,12000.0
4.0,8.0,4.0,3.0,4.0,1.0,6,0.0,7,0,1,1,1,1,0,0,0,1,0,1,39740.0
16.0,22.0,16.0,6.0,2.0,1.0,6,0.0,3,0,0,1,0,1,0,0,0,0,0,1,107406.0
30.0,35.0,10.0,3.0,2.0,1.0,3,9.0,3,0,0,0,0,0,1,0,1,0,0,0,128887.0
20.0,25.0,20.0,6.0,6.0,1.0,3,0.0,7,0,1,1,0,0,1,1,0,1,0,1,96666.0
27.0,27.0,10.0,2.0,5.0,1.0,6,0.0,7,0,1,1,1,0,1,0,0,0,0,1,75184.0
5.0,10.0,5.0,5.0,7.0,1.0,2,8.0,5,1,1,0,0,1,0,0,0,0,0,1,42962.0
3.0,10.0,3.0,6.0,4.0,1.0,2,0.0,8,1,1,1,1,1,0,0,0,0,0,1,61759.0
15.0,18.0,17.0,5.0,7.0,1.0,6,0.0,5,0,1,0,1,1,1,0,0,0,0,1,39404.0
10.0,20.0,20.0,5.0,7.0,1.0,6,10.0,8,0,1,0,1,1,1,1,0,0,0,0,16532.0
5.0,13.0,5.0,5.0,4.0,1.0,6,10.0,8,1,1,1,0,1,1,0,0,0,0,1,70193.0
5.0,6.0,5.0,5.0,4.0,0.0,10,0.0,4,1,0,0,0,1,0,0,0,0,0,1,130000.0
20.0,23.0,20.0,7.0,8.0,2.0,10,10.0,5,1,0,0,0,0,0,1,0,0,0,1,138000.0
24.0,35.0,24.0,5.0,9.0,1.0,10,0.0,5,0,1,0,1,1,0,0,1,0,0,1,130000.0
22.0,24.0,22.0,5.0,4.0,0.0,6,7.0,1,0,0,0,0,0,0,0,0,0,0,1,118147.0
20.0,24.0,20.0,5.0,5.0,1.0,8,0.0,7,1,0,1,1,1,0,0,0,0,1,1,118483.0
45.0,45.0,43.0,7.0,8.0,1.0,10,10.0,5,1,0,0,1,0,0,1,1,0,0,0,22000.0
13.0,16.0,13.0,3.0,3.0,1.0,6,0.0,10,0,1,1,1,0,1,0,1,0,1,1,64444.0
15.0,20.0,15.0,6.0,5.0,0.0,7,1.0,4,0,1,0,0,0,0,0,0,0,1,1,128887.0
7.0,11.0,7.0,3.0,2.0,1.0,6,1.0,5,0,1,0,1,0,0,0,1,0,0,0,39096.0
23.0,35.0,10.0,7.0,9.0,0.0,9,2.0,5,0,1,1,1,1,0,0,0,0,0,1,105732.0
11.0,12.0,11.0,6.0,4.0,0.0,3,1.0,2,0,0,0,0,1,0,0,0,0,0,1,64444.0
4.0,10.0,10.0,3.0,3.0,1.0,6,5.0,7,0,1,0,0,0,0,0,1,1,0,1,111417.0
20.0,25.0,20.0,3.0,4.0,0.0,1,10.0,3,0,0,0,0,0,0,0,0,1,0,1,123578.0
8.0,11.0,10.0,5.0,3.0,1.0,2,7.0,2,0,0,0,0,0,0,0,0,0,0,1,32222.0
2.0,12.0,10.0,5.0,3.0,1.0,5,0.0,5,1,1,1,1,0,0,0,0,0,0,0,42962.0
8.0,12.0,8.0,5.0,6.0,0.0,10,0.0,6,0,1,1,1,0,1,0,0,0,0,1,100000.0
7.0,16.0,7.0,5.0,4.0,0.0,6,1.0,6,0,1,1,0,0,0,0,0,1,1,1,132907.0
30.0,40.0,10.0,6.0,4.0,1.0,3,9.0,8,1,1,0,1,1,0,0,0,0,0,1,107406.0
51.0,51.0,10.0,5.0,1.0,1.0,3,8.0,13,1,0,0,1,0,0,0,1,0,0,0,25777.0
5.0,14.0,5.0,6.0,4.0,1.0,3,0.0,9,1,1,1,0,0,1,1,0,0,0,1,85925.0
5.0,13.0,7.0,6.0,5.0,2.0,10,9.0,5,1,0,0,0,0,0,1,0,0,1,1,129000.0
6.0,10.0,6.0,5.0,5.0,2.0,10,0.0,3,0,1,1,0,0,0,0,0,0,1,1,153000.0
10.0,14.0,10.0,5.0,5.0,0.0,6,0.0,5,1,1,1,0,0,0,0,0,1,1,1,70000.0
5.0,11.0,5.0,2.0,6.0,1.0,6,0.0,9,1,1,1,1,1,1,1,0,0,0,1,89134.0
26.0,29.0,10.0,5.0,4.0,1.0,10,0.0,5,0,1,1,1,0,1,0,0,0,0,1,155000.0
8.0,13.0,8.0,5.0,6.0,1.0,6,1.0,3,1,1,0,0,0,0,1,0,0,0,1,65392.0
10.0,15.0,10.0,6.0,7.0,0.0,6,10.0,15,1,1,0,1,1,1,1,1,0,0,1,50400.0
2.0,6.0,1.0,5.0,3.0,0.0,4,0.0,8,1,1,1,1,1,0,0,0,1,0,1,10767.0
6.0,20.0,7.0,6.0,4.0,0.0,9,1.0,7,1,1,1,1,0,0,0,0,0,0,1,110827.0
1.0,10.0,2.0,5.0,4.0,1.0,9,7.0,5,1,0,0,1,0,0,1,0,0,0,1,44586.0
20.0,40.0,10.0,5.0,7.0,1.0,6,0.0,6,1,1,0,1,0,0,0,0,0,0,1,54351.0
10.0,12.0,10.0,5.0,7.0,1.0,1,2.0,0,0,0,0,0,0,0,0,0,0,0,1,72693.0
20.0,24.0,20.0,5.0,2.0,0.0,9,0.0,4,1,1,0,1,0,0,0,0,0,0,1,87261.0
0.0,6.0,10.0,2.0,9.0,2.0,6,10.0,8,0,1,0,0,1,1,1,0,0,0,0,35063.0
15.0,28.0,17.0,6.0,2.0,2.0,6,8.0,7,0,1,0,1,0,0,1,1,0,0,0,44544.0
12.0,18.0,13.0,5.0,5.0,0.0,6,1.0,4,0,0,0,1,0,1,0,0,0,0,1,44256.0
9.0,13.0,9.0,2.0,4.0,0.0,0,1.0,3,0,1,0,1,0,1,0,0,0,0,1,16112.0
6.0,8.0,10.0,6.0,4.0,0.0,8,0.0,1,0,0,0,0,0,1,0,0,0,0,1,80000.0
9.0,16.0,10.0,6.0,7.0,1.0,6,0.0,7,0,0,1,0,1,0,0,0,1,1,1,103681.0
10.0,16.0,10.0,5.0,9.0,1.0,6,1.0,6,1,0,0,1,1,0,0,0,1,0,1,404763.0
20.0,25.0,10.0,3.0,3.0,0.0,7,0.0,6,1,1,1,1,0,0,0,0,0,0,0,128887.0
4.0,5.0,4.0,5.0,7.0,0.0,0,1.0,2,1,0,0,1,0,0,0,0,0,0,1,13875.0
10.0,18.0,10.0,6.0,1.0,1.0,5,7.0,5,0,1,1,1,1,0,0,0,0,0,0,128887.0
2.0,3.0,2.0,5.0,9.0,1.0,10,0.0,7,1,1,0,1,0,1,0,0,0,0,1,75000.0
35.0,35.0,10.0,1.0,1.0,0.0,6,0.0,10,1,1,0,1,0,0,1,1,0,0,0,110640.0
3.0,7.0,7.0,6.0,9.0,2.0,10,9.0,7,1,0,1,0,0,0,1,0,0,0,1,123000.0
12.0,23.0,24.0,6.0,7.0,2.0,0,0.0,2,0,0,0,1,1,0,0,0,0,0,1,27973.0
11.0,15.0,20.0,5.0,2.0,2.0,10,0.0,7,0,1,0,1,0,1,0,0,0,0,1,110000.0
10.0,25.0,10.0,7.0,3.0,2.0,6,1.0,2,0,0,0,0,0,0,0,0,0,0,0,95026.0
4.0,4.0,4.0,3.0,4.0,2.0,6,10.0,1,0,0,0,0,1,0,0,0,0,0,1,22076.0
6.0,15.0,7.0,6.0,9.0,1.0,9,10.0,8,0,1,0,1,1,0,0,1,0,0,1,111464.0
8.0,18.0,8.0,5.0,2.0,1.0,6,0.0,3,0,1,0,0,1,0,0,0,0,0,1,39740.0
45.0,45.0,45.0,6.0,7.0,1.0,9,0.0,7,0,1,1,1,0,1,0,1,0,0,1,63694.0
6.0,10.0,6.0,3.0,4.0,1.0,5,0.0,8,1,1,1,1,0,1,0,0,0,0,1,50085.0
12.0,12.0,10.0,7.0,4.0,0.0,6,10.0,5,0,0,0,0,0,0,0,0,1,0,1,99099.0
5.0,11.0,5.0,6.0,7.0,1.0,3,10.0,4,1,1,0,0,0,0,0,0,0,1,1,63370.0
5.0,11.0,5.0,5.0,4.0,1.0,6,0.0,8,1,1,1,1,0,1,0,0,0,0,1,53703.0
5.0,8.0,5.0,3.0,7.0,1.0,6,7.0,9,0,1,1,0,1,0,0,0,0,0,1,56066.0
11.0,14.0,10.0,6.0,2.0,1.0,6,10.0,1,0,0,0,0,1,0,0,0,0,0,1,22409.0
8.0,14.0,10.0,2.0,3.0,1.0,6,2.0,7,1,1,1,0,0,0,1,1,0,0,1,15130.0
5.0,8.0,10.0,6.0,5.0,0.0,8,10.0,2,0,1,1,0,0,0,0,0,0,0,1,70000.0
7.0,11.0,7.0,6.0,9.0,1.0,10,0.0,7,0,1,1,1,0,1,0,0,0,0,1,170000.0
8.0,12.0,9.0,5.0,7.0,1.0,10,10.0,3,1,0,0,0,0,0,0,0,1,0,1,85000.0
30.0,34.0,10.0,5.0,5.0,0.0,10,10.0,4,0,0,1,1,0,1,0,0,0,0,1,250000.0
5.0,6.0,7.0,5.0,4.0,0.0,8,1.0,8,0,1,1,1,0,0,0,1,1,0,1,55200.0
21.0,25.0,21.0,5.0,7.0,0.0,0,2.0,2,0,1,1,0,0,0,0,0,0,0,1,130541.0
15.0,20.0,10.0,5.0,9.0,0.0,10,1.0,4,0,1,1,0,0,0,0,0,0,0,1,325000.0
5.0,6.0,10.0,5.0,4.0,2.0,6,1.0,2,0,1,1,0,0,0,0,0,0,0,1,12921.0
5.0,13.0,10.0,6.0,9.0,1.0,2,5.0,2,1,0,0,0,0,1,0,0,0,0,1,39740.0
14.0,21.0,18.0,3.0,6.0,0.0,0,1.0,5,0,1,1,1,0,1,0,0,0,0,0,104005.0
3.0,4.0,3.0,3.0,4.0,0.0,8,1.0,5,0,1,1,1,0,0,0,0,1,0,1,20241.0
12.0,16.0,12.0,5.0,8.0,1.0,9,1.0,2,0,0,0,1,0,1,0,0,0,0,1,121018.0
2.0,5.0,3.0,5.0,7.0,1.0,6,0.0,3,1,1,1,0,0,0,0,0,0,0,1,29129.0
28.0,35.0,10.0,5.0,9.0,0.0,10,10.0,5,0,1,1,0,0,1,0,0,0,0,1,230000.0
1.0,7.0,10.0,7.0,4.0,1.0,6,10.0,1,0,0,0,0,0,0,1,0,0,0,1,41470.0
25.0,35.0,10.0,5.0,1.0,0.0,3,2.0,5,0,1,1,0,0,0,0,0,0,1,0,107406.0
10.0,14.0,10.0,7.0,9.0,1.0,3,10.0,6,1,0,0,1,0,0,1,0,0,1,1,70888.0
14.0,16.0,10.0,1.0,4.0,0.0,10,0.0,5,0,1,0,1,0,0,0,1,0,0,1,130000.0
20.0,25.0,21.0,5.0,3.0,1.0,10,0.0,5,0,1,0,1,0,0,0,0,0,0,1,165000.0
12.0,15.0,12.0,6.0,3.0,0.0,2,8.0,7,1,1,1,1,0,0,1,0,0,1,1,64444.0
45.0,45.0,45.0,4.0,5.0,2.0,10,9.0,4,0,0,0,0,0,1,1,0,0,0,1,140000.0
3.0,5.0,12.0,6.0,4.0,1.0,10,0.0,3,1,1,0,0,0,0,0,0,0,1,1,80000.0
12.0,12.0,10.0,5.0,8.0,2.0,7,10.0,6,1,1,0,1,1,0,0,1,0,0,1,64444.0
11.0,15.0,11.0,5.0,7.0,0.0,6,4.0,4,1,0,0,1,1,0,0,0,1,0,1,143924.0
3.0,6.0,10.0,6.0,2.0,1.0,5,0.0,9,1,1,0,1,0,0,1,0,1,0,0,85925.0
0.0,7.0,10.0,3.0,4.0,1.0,3,2.0,4,0,0,1,0,0,0,1,0,0,0,1,45111.0
14.0,25.0,15.0,6.0,5.0,1.0,9,1.0,2,1,0,0,0,0,0,0,0,0,0,1,68535.0
8.0,10.0,10.0,6.0,5.0,1.0,3,9.0,2,1,0,0,0,0,0,1,0,0,0,1,64444.0
20.0,25.0,10.0,7.0,9.0,1.0,0,10.0,9,1,1,1,1,1,0,0,0,1,0,1,42892.0
5.0,7.0,6.0,5.0,9.0,0.0,10,0.0,5,0,1,1,1,0,1,0,0,0,0,1,93000.0
34.0,45.0,45.0,3.0,7.0,1.0,6,10.0,3,1,0,0,0,0,0,0,0,0,0,1,42405.0
3.0,4.0,10.0,7.0,4.0,1.0,6,9.0,5,1,0,0,1,0,0,0,0,0,0,1,42962.0
19.0,26.0,19.0,3.0,5.0,1.0,9,6.0,7,1,1,1,1,0,0,0,0,0,0,1,101910.0
2.0,6.0,3.0,6.0,2.0,1.0,7,10.0,4,1,0,0,0,0,0,0,0,1,0,1,35444.0
6.0,10.0,10.0,5.0,1.0,1.0,6,0.0,7,0,1,0,1,1,0,0,1,1,0,1,38398.0
3.0,7.0,3.0,6.0,5.0,1.0,6,0.0,5,0,1,0,0,1,1,0,0,0,0,1,37592.0
3.0,7.0,4.0,5.0,4.0,2.0,6,0.0,6,0,1,1,1,1,0,0,1,0,0,0,80220.0
5.0,12.0,5.0,6.0,4.0,1.0,2,0.0,7,0,1,1,1,0,0,1,1,0,0,1,27926.0
18.0,20.0,20.0,2.0,3.0,0.0,10,0.0,6,0,1,1,1,0,1,0,0,1,0,1,160000.0
5.0,5.0,10.0,5.0,2.0,1.0,6,0.0,9,0,1,1,1,1,0,0,0,0,0,1,36266.0
8.0,15.0,8.0,5.0,4.0,0.0,0,0.0,5,0,1,1,1,0,0,0,0,1,0,1,180000.0
10.0,12.0,10.0,5.0,4.0,0.0,1,10.0,4,1,1,1,1,0,0,0,0,0,0,1,177371.0
7.0,15.0,10.0,6.0,6.0,0.0,8,0.0,5,0,1,0,1,0,0,0,1,0,0,1,35545.0
22.0,26.0,35.0,3.0,6.0,0.0,6,10.0,5,1,1,1,0,0,0,0,0,1,0,1,224000.0
18.0,21.0,18.0,5.0,7.0,1.0,9,0.0,7,0,1,1,0,1,0,0,0,0,0,1,90445.0
4.0,5.0,4.0,3.0,3.0,0.0,6,0.0,1,0,0,0,0,0,0,0,0,0,0,1,27796.0
14.0,18.0,10.0,6.0,9.0,0.0,10,10.0,2,0,0,0,0,0,1,0,0,0,0,1,310000.0
15.0,18.0,14.0,5.0,5.0,1.0,10,1.0,4,1,1,1,1,0,0,0,0,0,0,1,320000.0
6.0,6.0,6.0,5.0,4.0,0.0,4,0.0,4,0,1,1,1,0,0,0,0,0,0,1,19142.0
2.0,4.0,10.0,5.0,7.0,2.0,8,9.0,3,1,0,0,0,0,0,0,0,0,0,1,12000.0
4.0,10.0,15.0,6.0,9.0,1.0,6,8.0,3,1,0,0,1,0,0,0,0,0,0,1,46452.0
20.0,24.0,20.0,5.0,4.0,0.0,10,0.0,6,1,1,1,0,0,0,0,0,1,1,1,250000.0
10.0,15.0,10.0,5.0,9.0,0.0,10,1.0,3,0,0,0,0,0,1,0,0,0,0,1,250000.0
3.0,9.0,3.0,6.0,7.0,1.0,6,1.0,5,0,0,0,0,1,0,0,0,1,1,1,56448.0
1.0,10.0,9.0,5.0,9.0,1.0,6,9.0,3,1,0,0,0,0,0,1,0,0,0,1,87429.0
10.0,15.0,8.0,5.0,7.0,0.0,10,5.0,8,1,1,0,1,0,1,0,0,1,0,1,130000.0
4.0,7.0,4.0,4.0,2.0,1.0,10,0.0,8,0,1,0,1,0,1,0,0,0,0,1,52000.0
0.0,6.0,5.0,5.0,4.0,1.0,6,10.0,5,1,1,0,1,0,1,0,0,0,0,1,11791.0
3.0,19.0,3.0,5.0,4.0,0.0,10,0.0,4,0,1,0,1,0,1,0,0,0,0,1,80000.0
5.0,8.0,5.0,3.0,4.0,0.0,6,0.0,6,0,1,1,1,0,0,0,1,0,0,1,49493.0
18.0,22.0,10.0,6.0,1.0,1.0,5,0.0,10,1,1,1,0,1,1,0,0,1,0,0,150369.0
14.0,20.0,10.0,6.0,9.0,1.0,6,10.0,1,0,0,0,0,0,0,0,0,0,0,1,143076.0
12.0,16.0,12.0,5.0,4.0,1.0,7,0.0,6,1,0,1,1,1,0,0,0,0,0,0,18259.0
10.0,10.0,10.0,5.0,6.0,1.0,6,1.0,3,0,1,0,1,0,1,0,0,0,0,1,161905.0
16.0,36.0,15.0,5.0,7.0,2.0,6,0.0,4,0,1,0,1,0,0,0,1,0,0,1,101281.0
6.0,9.0,6.0,5.0,5.0,1.0,3,0.0,5,0,1,1,1,0,1,0,0,0,0,1,80555.0
9.0,15.0,9.0,3.0,5.0,1.0,1,5.0,5,0,0,0,0,0,1,1,0,1,0,1,90866.0
8.0,11.0,10.0,3.0,9.0,0.0,0,2.0,3,0,1,1,0,0,0,0,0,0,0,1,91165.0
5.0,8.0,5.0,5.0,7.0,1.0,10,1.0,3,1,0,0,1,0,0,0,0,0,0,1,105000.0
30.0,40.0,10.0,5.0,4.0,0.0,10,10.0,2,0,0,0,1,0,0,0,0,0,0,1,217000.0
8.0,15.0,8.0,6.0,9.0,1.0,6,1.0,3,0,0,0,1,1,0,0,0,0,0,1,78183.0
1.0,5.0,2.0,5.0,9.0,0.0,8,8.0,2,0,1,0,0,0,1,0,0,0,0,1,13082.0
4.0,7.0,10.0,5.0,8.0,0.0,4,0.0,9,1,0,1,0,1,0,1,0,1,0,1,20338.0
14.0,17.0,10.0,5.0,8.0,1.0,10,0.0,5,0,1,0,1,0,1,0,0,0,0,1,125000.0
4.0,9.0,4.0,6.0,8.0,0.0,10,0.0,8,1,1,1,1,0,1,0,0,0,0,1,120000.0
7.0,16.0,10.0,6.0,3.0,1.0,5,0.0,5,1,1,1,1,0,0,0,0,0,0,1,69814.0
2.0,5.0,3.0,4.0,3.0,2.0,7,0.0,4,0,1,0,1,0,0,0,1,0,0,1,24166.0
6.0,11.0,6.0,5.0,4.0,1.0,6,2.0,2,0,1,0,0,0,0,0,0,0,0,1,60899.0
0.0,5.0,1.0,5.0,5.0,0.0,9,0.0,4,1,1,1,0,0,0,0,0,0,0,1,121018.0
13.0,13.0,13.0,6.0,5.0,0.0,8,1.0,3,0,1,0,0,0,0,0,1,0,0,1,32089.0
4.0,11.0,4.0,6.0,5.0,1.0,6,1.0,6,1,1,1,0,0,0,0,0,1,0,1,56925.0
3.0,4.0,3.0,5.0,5.0,0.0,8,2.0,3,0,1,1,0,0,0,0,0,0,0,1,45000.0
5.0,8.0,5.0,5.0,4.0,1.0,3,10.0,7,1,1,1,1,1,0,0,0,0,0,1,60147.0
8.0,8.0,10.0,5.0,4.0,0.0,8,0.0,7,0,1,1,1,0,0,0,0,1,0,1,64629.0
30.0,32.0,10.0,7.0,5.0,0.0,10,1.0,10,1,1,1,1,0,0,1,0,1,0,1,200000.0
4.0,5.0,6.0,6.0,4.0,1.0,8,10.0,2,0,0,0,1,0,0,1,0,0,0,1,20517.0
5.0,18.0,7.0,5.0,7.0,1.0,6,3.0,14,1,1,0,1,0,1,1,0,0,1,1,111417.0
5.0,3.0,5.0,4.0,2.0,1.0,6,2.0,9,1,1,1,1,1,0,0,0,0,0,1,26852.0
13.0,18.0,13.0,5.0,5.0,2.0,6,8.0,2,0,0,0,1,0,1,0,0,0,0,1,58026.0
10.0,11.0,10.0,6.0,9.0,1.0,10,2.0,6,0,1,1,1,1,0,0,0,0,0,1,338000.0
18.0,25.0,19.0,6.0,7.0,1.0,3,9.0,6,1,0,0,0,0,0,1,0,0,1,1,123517.0
2.0,10.0,2.0,5.0,7.0,1.0,6,1.0,5,0,1,1,1,0,0,0,0,0,0,1,52238.0
9.0,20.0,15.0,7.0,9.0,0.0,10,10.0,4,0,0,0,1,0,0,1,0,0,0,1,210000.0
10.0,10.0,10.0,5.0,5.0,1.0,6,10.0,3,1,0,0,0,0,0,1,0,0,0,1,47733.0
4.0,7.0,7.0,5.0,2.0,1.0,6,1.0,6,1,1,0,1,0,0,0,0,1,0,1,12000.0
8.0,12.0,12.0,5.0,3.0,1.0,6,0.0,14,1,1,0,1,1,1,1,1,0,0,0,45889.0
7.0,8.0,7.0,5.0,6.0,1.0,1,0.0,3,0,1,1,0,0,0,0,0,0,0,1,87231.0
3.0,6.0,6.0,5.0,4.0,0.0,0,1.0,5,1,0,0,1,1,0,0,0,0,0,1,19022.0
6.0,9.0,10.0,6.0,4.0,2.0,6,1.0,1,0,0,0,0,0,1,0,0,0,0,1,78183.0
15.0,16.0,10.0,5.0,5.0,0.0,6,10.0,3,0,0,0,0,1,1,0,0,0,0,1,60000.0
8.0,10.0,8.0,6.0,4.0,1.0,9,0.0,7,1,1,1,0,0,1,0,0,0,1,1,79617.0
3.0,12.0,4.0,3.0,4.0,0.0,10,10.0,11,1,1,0,1,0,0,0,0,0,1,1,74000.0
3.0,7.0,3.0,3.0,4.0,2.0,3,0.0,4,0,1,0,1,0,0,0,1,0,0,1,37700.0
2.0,7.0,2.0,5.0,3.0,1.0,6,0.0,3,0,1,0,0,0,0,0,0,0,0,1,26852.0
2.0,6.0,2.0,6.0,3.0,1.0,10,4.0,4,1,0,0,1,0,1,0,0,0,0,0,100000.0
11.0,17.0,11.0,5.0,8.0,1.0,6,1.0,3,0,0,0,0,1,0,0,1,0,0,1,41192.0
9.0,11.0,10.0,3.0,5.0,1.0,9,0.0,11,0,1,1,1,1,1,0,1,0,0,1,83439.0
12.0,16.0,12.0,5.0,9.0,0.0,6,0.0,3,0,0,1,0,1,0,0,0,0,0,1,59246.0
1.0,9.0,1.0,3.0,4.0,1.0,8,1.0,2,0,0,0,0,0,0,0,0,0,1,1,11848.0
22.0,28.0,20.0,6.0,3.0,0.0,3,1.0,1,0,0,0,0,1,0,0,0,0,0,1,107406.0
10.0,10.0,10.0,5.0,7.0,2.0,6,0.0,2,0,1,0,0,0,1,0,0,0,0,1,26852.0
5.0,15.0,6.0,5.0,3.0,2.0,3,1.0,7,0,1,0,1,1,1,0,0,0,0,1,53166.0
3.0,8.0,4.0,3.0,8.0,0.0,1,0.0,5,0,1,1,0,1,1,1,0,0,0,1,72693.0
25.0,25.0,25.0,5.0,4.0,0.0,1,1.0,4,0,1,0,1,0,0,0,1,0,0,1,107149.0
7.0,18.0,7.0,6.0,9.0,1.0,5,1.0,2,0,0,0,0,1,0,0,0,0,0,1,85925.0
5.0,6.0,5.0,4.0,4.0,2.0,6,0.0,8,0,1,1,1,1,0,0,1,1,0,1,29893.0
4.0,7.0,4.0,6.0,4.0,2.0,4,1.0,1,1,0,0,0,0,0,0,0,0,0,1,23927.0
3.0,21.0,10.0,5.0,5.0,1.0,10,10.0,7,1,0,0,0,1,0,1,0,0,1,1,100000.0
13.0,20.0,13.0,2.0,4.0,1.0,6,0.0,4,0,1,0,1,0,0,0,1,0,0,0,38154.0
9.0,9.0,9.0,6.0,9.0,0.0,10,1.0,3,1,1,1,0,0,0,0,0,0,0,1,230000.0
1.0,3.0,10.0,5.0,9.0,1.0,10,0.0,6,1,1,1,0,1,0,1,0,0,0,1,45000.0
16.0,30.0,16.0,6.0,5.0,1.0,5,1.0,3,0,1,0,0,1,0,0,0,0,0,0,69744.0
5.0,10.0,4.0,5.0,5.0,1.0,6,1.0,4,0,1,0,1,0,1,0,0,0,0,1,47266.0
6.0,6.0,15.0,5.0,9.0,0.0,9,1.0,10,1,1,1,0,1,0,0,0,0,0,1,114649.0
16.0,19.0,16.0,5.0,2.0,1.0,6,0.0,6,0,1,0,1,0,0,0,1,0,0,1,30512.0
5.0,8.0,10.0,6.0,7.0,0.0,8,10.0,8,1,1,0,0,1,1,1,1,0,0,1,49368.0
7.0,20.0,7.0,2.0,7.0,0.0,3,0.0,6,0,1,1,1,1,1,0,0,0,0,1,81629.0
5.0,9.0,10.0,3.0,2.0,1.0,2,0.0,5,1,1,0,1,0,0,0,1,0,0,1,47267.0
5.0,8.0,5.0,6.0,4.0,1.0,2,0.0,6,0,1,1,1,0,0,0,1,0,0,1,48333.0
18.0,23.0,22.0,6.0,4.0,2.0,6,1.0,3,0,0,0,1,0,0,0,0,0,0,1,124807.0
2.0,7.0,2.0,6.0,6.0,1.0,6,1.0,3,1,1,0,0,0,0,1,0,0,0,1,51507.0
12.0,16.0,12.0,7.0,6.0,1.0,9,9.0,2,1,0,0,0,0,0,0,0,0,1,1,76433.0
3.0,6.0,3.0,5.0,5.0,2.0,4,7.0,1,0,0,0,0,0,0,0,0,0,0,1,53836.0
25.0,30.0,25.0,6.0,9.0,0.0,6,10.0,9,1,1,0,1,1,1,0,0,0,0,1,75184.0
23.0,35.0,23.0,5.0,9.0,1.0,7,10.0,5,1,1,0,0,0,1,1,0,0,0,1,70888.0
4.0,7.0,4.0,6.0,6.0,0.0,2,10.0,1,1,0,0,0,0,0,0,0,0,0,1,67666.0
13.0,17.0,17.0,6.0,4.0,1.0,6,5.0,8,1,0,0,1,1,0,0,0,1,0,0,200550.0
40.0,43.0,10.0,6.0,3.0,1.0,3,10.0,1,0,0,0,0,0,0,0,0,0,0,0,34370.0
5.0,10.0,10.0,6.0,2.0,0.0,6,0.0,4,0,1,0,1,0,0,0,1,0,0,1,36806.0
12.0,15.0,10.0,6.0,6.0,2.0,2,0.0,4,0,0,1,1,0,1,0,0,0,0,1,69814.0
7.0,15.0,10.0,7.0,6.0,0.0,3,0.0,4,1,0,1,0,0,0,0,0,1,0,1,105258.0
15.0,19.0,15.0,6.0,7.0,1.0,9,9.0,6,1,0,0,0,0,0,1,0,1,0,1,114267.0
19.0,23.0,19.0,5.0,5.0,1.0,6,8.0,4,0,0,0,1,1,0,1,0,0,0,1,85886.0
1.0,4.0,10.0,5.0,7.0,1.0,10,10.0,5,1,0,0,0,1,0,0,0,0,0,1,70000.0
24.0,27.0,10.0,5.0,4.0,0.0,10,8.0,2,0,0,0,1,0,1,0,0,0,0,1,98000.0
25.0,40.0,25.0,5.0,8.0,0.0,6,0.0,4,0,1,0,1,0,1,0,0,0,0,1,102036.0
10.0,32.0,10.0,5.0,4.0,1.0,6,0.0,2,0,1,0,0,0,0,0,0,0,0,1,86597.0
7.0,37.0,10.0,5.0,4.0,1.0,2,10.0,14,1,1,0,1,1,1,0,1,1,0,1,51555.0
5.0,16.0,5.0,3.0,3.0,0.0,6,0.0,7,0,0,0,1,1,0,0,0,1,0,1,23629.0
0.0,7.0,10.0,5.0,9.0,0.0,6,7.0,1,0,0,0,0,0,0,0,0,0,0,1,10741.0
4.0,8.0,4.0,5.0,7.0,2.0,6,1.0,6,0,1,1,1,1,0,0,0,0,0,1,12000.0
6.0,7.0,10.0,5.0,5.0,0.0,6,0.0,6,0,1,1,1,0,0,0,1,0,0,1,58000.0
1.0,11.0,10.0,5.0,4.0,1.0,10,10.0,4,1,0,0,1,0,0,0,0,0,0,1,155000.0
12.0,15.0,10.0,6.0,2.0,0.0,4,1.0,3,0,0,0,1,0,1,0,0,0,0,1,37087.0
5.0,12.0,25.0,6.0,5.0,2.0,10,10.0,2,1,0,0,0,0,0,1,0,0,0,1,80000.0
1.0,8.0,10.0,2.0,2.0,2.0,6,1.0,12,1,1,1,1,1,0,1,1,0,0,0,29644.0
12.0,14.0,10.0,6.0,9.0,0.0,10,4.0,2,1,0,0,1,0,0,0,0,0,0,1,175000.0
36.0,41.0,36.0,5.0,4.0,2.0,10,10.0,6,0,1,0,1,0,0,1,0,0,0,1,240000.0
4.0,9.0,6.0,5.0,9.0,0.0,6,10.0,4,1,0,0,0,1,0,0,0,1,0,1,42394.0
7.0,7.0,10.0,5.0,7.0,0.0,6,1.0,5,0,1,0,1,1,0,0,0,0,0,1,95026.0
10.0,14.0,10.0,6.0,8.0,0.0,7,10.0,1,0,0,0,0,0,0,0,0,0,0,1,100962.0
11.0,14.0,11.0,6.0,6.0,1.0,1,10.0,5,0,0,0,1,0,1,0,0,0,0,1,109039.0
6.0,10.0,10.0,6.0,3.0,2.0,6,0.0,2,0,1,0,0,1,0,0,0,0,0,1,37592.0
16.0,16.0,10.0,5.0,4.0,1.0,10,6.0,4,0,1,1,1,0,0,0,0,0,0,1,200000.0
8.0,12.0,10.0,5.0,4.0,2.0,6,2.0,5,0,1,1,0,1,0,0,0,0,0,1,93591.0
0.0,6.0,10.0,6.0,6.0,2.0,2,1.0,7,1,0,0,1,1,0,1,0,1,0,1,42640.0
42.0,42.0,10.0,5.0,1.0,0.0,9,7.0,5,0,1,0,1,0,0,0,0,0,0,0,191082.0
12.0,14.0,12.0,6.0,7.0,0.0,8,10.0,2,1,0,0,0,0,0,1,0,0,0,1,77014.0
3.0,7.0,10.0,5.0,4.0,1.0,6,0.0,5,0,1,1,1,0,1,0,0,0,0,1,34005.0
7.0,11.0,8.0,3.0,7.0,2.0,10,10.0,7,0,1,0,1,0,0,0,1,1,0,1,83080.0
11.0,12.0,12.0,5.0,7.0,1.0,6,0.0,9,1,1,1,1,1,1,0,0,0,1,1,82448.0
24.0,30.0,24.0,6.0,9.0,0.0,8,10.0,13,1,1,0,1,1,1,1,0,0,0,1,120000.0
10.0,15.0,10.0,5.0,5.0,1.0,3,1.0,3,1,0,0,0,0,0,0,0,0,0,1,123517.0
0.0,6.0,10.0,6.0,1.0,0.0,6,0.0,4,0,0,1,0,1,0,0,0,0,0,0,21197.0
9.0,16.0,10.0,5.0,6.0,0.0,4,0.0,4,0,0,1,1,0,1,0,0,0,0,1,27516.0
2.0,3.0,10.0,5.0,6.0,0.0,0,1.0,6,1,1,1,1,0,0,0,0,0,0,1,11189.0
0.0,5.0,1.0,5.0,6.0,1.0,10,8.0,7,1,1,1,1,0,1,0,0,0,1,1,50000.0
1.0,4.0,1.0,3.0,4.0,1.0,6,10.0,4,1,1,0,0,1,0,0,0,0,0,1,44681.0
1.0,4.0,1.0,5.0,2.0,0.0,4,7.0,5,1,0,0,0,1,0,1,0,0,0,0,14356.0
14.0,20.0,16.0,6.0,8.0,0.0,7,7.0,5,1,0,0,1,1,0,0,0,0,0,1,91295.0
2.0,14.0,2.0,3.0,5.0,1.0,6,5.0,7,1,1,0,1,1,1,0,0,0,0,1,26061.0
8.0,10.0,8.0,6.0,5.0,0.0,8,2.0,6,0,1,1,0,1,0,1,1,0,0,0,37026.0
3.0,5.0,3.0,4.0,4.0,1.0,0,0.0,4,0,1,1,0,0,0,0,0,0,0,1,10257.0
4.0,7.0,7.0,2.0,8.0,1.0,3,1.0,3,0,1,0,0,1,0,0,0,0,0,1,48333.0
24.0,28.0,24.0,5.0,4.0,0.0,10,0.0,6,1,1,0,1,0,1,0,0,0,0,0,10000.0
3.0,3.0,3.0,6.0,4.0,1.0,6,2.0,3,0,1,0,0,0,0,0,1,0,0,1,12889.0
4.0,6.0,4.0,5.0,5.0,1.0,6,1.0,4,1,1,0,0,0,0,1,0,0,0,1,67227.0
11.0,11.0,11.0,2.0,4.0,0.0,6,0.0,5,0,1,1,1,0,1,0,0,0,0,1,35444.0
12.0,16.0,10.0,5.0,5.0,1.0,4,0.0,6,0,1,1,1,0,1,0,1,0,0,1,35890.0
10.0,13.0,10.0,2.0,7.0,0.0,6,0.0,9,0,1,1,1,1,0,0,1,0,0,1,33255.0
16.0,22.0,16.0,5.0,3.0,2.0,6,1.0,11,1,1,1,1,1,0,0,1,1,1,1,33613.0
7.0,7.0,10.0,5.0,9.0,0.0,4,1.0,2,0,0,0,0,1,0,0,0,1,0,1,29909.0
7.0,16.0,7.0,5.0,4.0,0.0,6,1.0,2,0,0,0,1,0,0,0,0,0,0,1,25996.0
3.0,7.0,10.0,6.0,4.0,1.0,8,2.0,4,0,1,1,0,0,1,0,0,0,0,1,26000.0
1.0,11.0,1.0,3.0,3.0,1.0,10,0.0,11,1,1,1,1,0,1,0,0,0,1,0,36000.0
5.0,10.0,15.0,6.0,4.0,0.0,3,10.0,3,1,1,0,0,1,0,0,0,0,0,1,118147.0
7.0,29.0,7.0,6.0,7.0,0.0,10,0.0,6,0,1,1,1,0,1,0,0,0,0,1,112476.0
3.0,6.0,2.0,5.0,8.0,0.0,6,0.0,5,0,1,1,1,0,1,0,0,0,0,1,30074.0
10.0,25.0,10.0,6.0,1.0,0.0,2,10.0,12,1,1,0,1,1,0,0,0,1,0,0,118147.0
5.0,10.0,5.0,5.0,2.0,0.0,3,0.0,6,0,1,1,1,0,1,0,1,0,0,1,51555.0
4.0,8.0,4.0,5.0,4.0,1.0,6,1.0,5,0,1,1,0,0,0,0,0,1,0,1,26157.0
5.0,8.0,4.0,5.0,5.0,1.0,1,0.0,5,1,1,1,1,0,0,0,0,0,0,1,58154.0
37.0,40.0,10.0,6.0,1.0,0.0,3,9.0,6,0,0,0,1,1,1,1,0,0,0,0,214812.0
4.0,15.0,10.0,6.0,5.0,1.0,3,4.0,2,1,0,0,1,0,0,0,0,0,0,1,69814.0
17.0,30.0,17.0,7.0,6.0,1.0,6,4.0,4,1,0,0,1,0,1,0,0,0,0,1,155984.0
2.0,6.0,4.0,5.0,3.0,2.0,0,4.0,10,1,0,0,1,1,1,1,0,0,0,1,14546.0
7.0,10.0,7.0,5.0,9.0,1.0,9,1.0,4,0,0,1,0,0,1,0,0,0,0,1,187260.0
6.0,8.0,10.0,6.0,3.0,0.0,1,0.0,5,1,1,0,1,0,1,0,0,0,0,1,47250.0
25.0,33.0,25.0,6.0,5.0,1.0,6,1.0,5,1,0,0,0,1,1,0,0,0,0,1,112309.0
3.0,10.0,10.0,5.0,2.0,0.0,10,0.0,5,0,1,0,0,1,0,0,0,0,0,1,100000.0
6.0,6.0,29.0,7.0,9.0,1.0,5,1.0,4,1,0,0,1,0,1,0,0,0,0,1,85925.0
10.0,18.0,10.0,5.0,2.0,1.0,6,0.0,6,0,1,1,1,0,0,0,1,0,0,1,42962.0
16.0,22.0,10.0,6.0,6.0,0.0,8,2.0,3,0,0,1,1,0,0,0,1,0,0,1,53000.0
7.0,10.0,10.0,2.0,9.0,2.0,3,1.0,4,0,0,0,1,0,1,1,0,0,0,1,59073.0
5.0,8.0,10.0,5.0,6.0,0.0,6,1.0,8,0,1,1,1,1,0,0,1,0,0,1,59073.0
51.0,51.0,50.0,5.0,4.0,1.0,10,10.0,4,0,1,0,0,0,0,1,0,0,0,0,70000.0
19.0,24.0,19.0,6.0,5.0,1.0,6,10.0,7,1,0,1,1,0,0,0,0,1,0,0,118919.0
38.0,43.0,43.0,7.0,9.0,1.0,3,10.0,6,0,1,0,1,0,0,0,0,0,0,1,88073.0
3.0,10.0,4.0,5.0,8.0,2.0,10,0.0,5,1,0,0,0,0,1,1,0,0,0,1,70000.0
7.0,9.0,12.0,5.0,9.0,1.0,10,6.0,6,1,0,1,1,0,0,0,0,1,0,1,400000.0
10.0,14.0,10.0,5.0,5.0,0.0,6,0.0,4,0,1,1,1,0,0,0,0,0,0,1,18000.0
9.0,13.0,9.0,5.0,9.0,1.0,10,10.0,1,0,0,0,0,0,1,0,0,0,0,1,225000.0
5.0,11.0,10.0,6.0,5.0,2.0,1,1.0,6,1,0,0,1,1,0,0,0,0,1,1,123578.0
15.0,18.0,15.0,6.0,5.0,0.0,4,2.0,3,0,1,1,0,0,0,0,0,0,0,1,27516.0
2.0,5.0,2.0,5.0,3.0,0.0,6,0.0,10,1,1,1,1,0,0,0,1,0,0,0,32866.0
34.0,44.0,34.0,6.0,7.0,0.0,2,1.0,10,1,1,1,0,1,0,1,0,1,1,1,214812.0
0.0,5.0,2.0,5.0,7.0,1.0,3,10.0,8,1,1,1,0,1,0,0,0,0,0,1,55851.0
10.0,15.0,10.0,6.0,5.0,1.0,3,7.0,1,0,0,0,0,0,0,0,0,0,0,1,96666.0
15.0,28.0,15.0,7.0,4.0,0.0,6,3.0,8,1,1,1,1,0,0,0,0,1,1,1,70008.0
7.0,14.0,7.0,5.0,4.0,2.0,6,2.0,8,0,1,1,0,1,1,1,0,0,0,1,44542.0
4.0,7.0,10.0,5.0,9.0,0.0,10,0.0,4,0,0,1,1,1,0,0,0,0,0,1,110000.0
13.0,19.0,13.0,6.0,8.0,1.0,3,0.0,2,0,0,0,1,0,1,0,0,0,0,1,73573.0
28.0,36.0,26.0,3.0,5.0,0.0,3,10.0,12,1,1,0,1,1,1,1,1,0,0,0,41351.0
36.0,40.0,36.0,5.0,9.0,2.0,10,6.0,7,1,1,0,1,0,0,0,1,0,0,1,230000.0
7.0,9.0,7.0,5.0,2.0,0.0,9,0.0,5,0,1,1,1,0,0,0,0,1,0,0,30000.0
12.0,22.0,12.0,6.0,2.0,1.0,6,0.0,4,0,1,1,0,0,1,0,0,0,0,1,131155.0
5.0,8.0,6.0,6.0,4.0,1.0,6,8.0,11,1,1,0,1,1,1,0,1,0,0,1,32222.0
11.0,14.0,11.0,5.0,5.0,0.0,6,1.0,2,0,0,0,1,1,0,0,0,0,0,1,85648.0
22.0,27.0,22.0,6.0,7.0,0.0,6,1.0,6,1,1,1,1,1,0,0,0,0,0,1,90000.0
5.0,9.0,10.0,5.0,5.0,1.0,10,1.0,2,0,0,0,1,0,1,0,0,0,0,1,126500.0
10.0,12.0,10.0,3.0,4.0,1.0,10,10.0,5,0,1,1,1,0,0,0,1,0,0,1,200000.0
11.0,25.0,10.0,7.0,8.0,1.0,9,10.0,8,1,1,0,1,0,0,0,1,0,0,0,44586.0
8.0,9.0,8.0,3.0,7.0,1.0,6,1.0,2,0,0,0,0,0,0,0,0,1,1,1,87876.0
7.0,18.0,7.0,5.0,5.0,0.0,6,10.0,3,1,0,0,0,0,1,1,0,0,0,1,72673.0
13.0,13.0,6.0,6.0,7.0,2.0,10,10.0,10,1,1,1,1,0,1,1,0,1,0,1,62000.0
1.0,6.0,1.0,5.0,4.0,1.0,4,10.0,9,1,1,0,1,0,0,1,1,0,0,1,27516.0
17.0,20.0,17.0,5.0,9.0,1.0,4,4.0,1,0,0,0,0,1,0,0,0,0,0,1,47854.0
5.0,10.0,5.0,5.0,9.0,0.0,7,1.0,5,1,0,0,1,0,0,0,0,1,0,1,53703.0
2.0,4.0,2.0,3.0,4.0,1.0,6,4.0,2,0,0,0,1,1,0,0,0,0,0,1,38154.0
15.0,20.0,10.0,6.0,3.0,0.0,6,0.0,6,0,1,1,1,0,1,0,0,0,0,1,31463.0
11.0,11.0,10.0,3.0,4.0,1.0,9,5.0,8,1,1,0,1,0,1,0,1,0,0,1,89172.0
9.0,12.0,10.0,5.0,8.0,1.0,4,10.0,3,0,1,0,0,1,0,0,0,0,0,1,39479.0
0.0,3.0,1.0,7.0,4.0,2.0,7,1.0,5,1,0,0,0,1,1,1,0,0,0,1,22555.0
20.0,27.0,20.0,6.0,5.0,1.0,2,8.0,3,1,0,0,0,0,0,1,0,0,0,1,68740.0
3.0,8.0,3.0,5.0,5.0,1.0,6,1.0,2,0,0,0,1,0,0,0,0,0,0,1,43828.0
0.0,5.0,0.0,5.0,3.0,2.0,6,1.0,4,0,1,1,1,1,0,0,0,0,0,1,10823.0
9.0,16.0,8.0,5.0,5.0,0.0,10,10.0,4,1,0,0,0,0,1,0,0,0,1,1,172000.0
10.0,16.0,10.0,5.0,9.0,1.0,10,0.0,6,1,1,1,1,0,0,0,0,0,0,1,250000.0
6.0,7.0,10.0,6.0,5.0,2.0,6,10.0,2,0,0,0,1,0,0,0,0,0,0,1,61222.0
4.0,33.0,4.0,3.0,5.0,0.0,6,10.0,5,1,0,0,1,0,0,0,0,0,0,1,44818.0
10.0,15.0,10.0,3.0,9.0,0.0,6,0.0,5,0,1,1,1,0,1,0,0,0,0,1,60000.0
5.0,9.0,4.0,6.0,4.0,0.0,2,0.0,6,0,1,1,1,1,0,0,0,0,0,1,66592.0
3.0,10.0,3.0,5.0,7.0,1.0,6,10.0,10,1,1,1,1,1,0,0,0,0,1,0,32222.0
6.0,6.0,10.0,5.0,4.0,0.0,6,1.0,4,0,1,1,0,1,0,0,0,0,0,1,65000.0
12.0,25.0,12.0,6.0,6.0,1.0,1,0.0,7,1,1,1,1,0,1,0,0,0,0,1,62516.0
5.0,9.0,10.0,5.0,5.0,0.0,6,0.0,3,0,1,0,0,0,0,0,1,0,0,1,18399.0
38.0,44.0,38.0,2.0,4.0,0.0,9,1.0,4,1,0,0,1,0,0,1,0,0,0,1,159235.0
4.0,10.0,4.0,5.0,4.0,1.0,3,7.0,7,1,1,1,1,0,1,0,0,0,0,1,66592.0
10.0,12.0,10.0,3.0,1.0,0.0,6,0.0,3,0,1,0,0,0,0,0,1,0,0,1,35444.0
26.0,34.0,26.0,3.0,7.0,0.0,10,5.0,13,1,1,1,1,0,1,0,0,1,1,1,250000.0
10.0,16.0,10.0,5.0,8.0,0.0,7,1.0,5,0,1,0,0,1,0,0,0,0,1,0,180000.0
10.0,10.0,10.0,5.0,6.0,1.0,6,6.0,10,1,1,1,1,0,0,0,1,0,0,1,102036.0
6.0,9.0,6.0,5.0,4.0,0.0,6,4.0,7,1,1,0,1,1,0,0,0,0,0,0,61866.0
6.0,6.0,6.0,5.0,4.0,0.0,6,1.0,6,0,1,1,1,0,0,0,0,0,0,1,30600.0
20.0,25.0,25.0,6.0,7.0,1.0,6,0.0,9,1,0,1,0,1,0,0,0,0,0,1,211692.0
2.0,9.0,5.0,2.0,5.0,1.0,3,0.0,6,0,0,0,1,0,1,1,0,0,0,1,24166.0
13.0,26.0,13.0,5.0,7.0,1.0,10,0.0,6,1,1,0,1,0,0,0,0,1,0,1,143000.0
7.0,12.0,10.0,5.0,9.0,1.0,10,1.0,1,0,0,0,0,0,0,0,0,1,0,1,300000.0
16.0,20.0,16.0,5.0,5.0,0.0,10,6.0,6,1,0,0,1,1,0,0,0,0,0,1,250000.0
9.0,25.0,9.0,7.0,4.0,0.0,3,1.0,6,1,1,0,0,0,0,1,0,0,0,1,103110.0
5.0,6.0,10.0,3.0,6.0,0.0,5,2.0,4,0,1,1,0,0,0,0,0,0,1,1,85925.0
24.0,28.0,10.0,5.0,1.0,0.0,1,0.0,11,1,1,0,1,0,1,0,0,0,0,0,72693.0
10.0,25.0,10.0,6.0,7.0,2.0,6,0.0,7,1,1,1,1,1,0,0,0,0,0,1,103482.0
3.0,8.0,3.0,6.0,8.0,2.0,4,10.0,2,1,0,0,0,0,0,0,0,0,0,1,17945.0
5.0,13.0,5.0,4.0,3.0,0.0,1,0.0,12,0,1,1,1,1,1,0,1,0,0,1,65424.0
20.0,30.0,20.0,5.0,6.0,1.0,9,1.0,6,0,1,0,1,1,1,0,0,0,0,1,94267.0
23.0,28.0,10.0,6.0,4.0,1.0,2,5.0,2,1,0,0,0,0,0,0,0,0,0,1,59073.0
6.0,10.0,10.0,5.0,3.0,0.0,4,2.0,12,1,1,1,0,1,0,1,1,1,0,1,120000.0
20.0,20.0,10.0,5.0,1.0,0.0,10,8.0,6,0,1,0,0,0,0,0,0,0,0,0,400000.0
9.0,19.0,10.0,6.0,9.0,1.0,6,10.0,3,0,1,0,0,0,0,0,0,1,0,1,128887.0
8.0,10.0,10.0,6.0,7.0,0.0,8,10.0,3,0,1,0,1,0,0,0,0,0,0,1,180000.0
6.0,11.0,10.0,5.0,7.0,0.0,3,0.0,5,0,1,1,1,1,0,0,0,0,0,1,56925.0
16.0,20.0,16.0,6.0,6.0,1.0,4,10.0,6,0,1,0,1,0,1,0,0,0,0,1,26320.0
19.0,24.0,24.0,6.0,7.0,1.0,8,7.0,2,0,0,0,0,0,0,0,0,0,0,1,56400.0
16.0,20.0,16.0,6.0,6.0,0.0,3,1.0,8,0,1,0,1,1,0,1,0,0,0,0,106117.0
18.0,22.0,10.0,5.0,7.0,0.0,10,1.0,5,1,1,0,0,1,0,0,0,0,0,1,175000.0
7.0,9.0,10.0,3.0,1.0,0.0,9,0.0,18,1,1,1,1,1,1,1,0,1,1,0,22930.0
8.0,17.0,8.0,5.0,9.0,1.0,10,0.0,7,0,1,1,1,0,1,0,0,0,0,1,90000.0
2.0,6.0,2.0,6.0,7.0,2.0,6,0.0,9,1,1,0,1,1,0,1,1,0,0,1,18492.0
15.0,25.0,17.0,6.0,7.0,1.0,6,8.0,4,0,1,0,0,1,0,0,0,0,0,1,107887.0
2.0,5.0,10.0,6.0,7.0,1.0,8,10.0,2,1,0,0,0,0,0,0,0,0,0,1,22216.0
10.0,12.0,10.0,6.0,3.0,0.0,9,6.0,3,1,1,0,0,0,0,0,0,0,0,1,121018.0
3.0,6.0,3.0,5.0,4.0,2.0,6,0.0,2,0,0,0,0,0,1,0,0,0,0,1,21481.0
15.0,20.0,15.0,7.0,2.0,0.0,6,0.0,8,0,1,0,1,0,1,0,0,1,1,1,53703.0
6.0,7.0,7.0,5.0,5.0,1.0,10,0.0,5,0,1,1,1,0,1,0,0,0,0,1,117500.0
22.0,28.0,10.0,5.0,4.0,1.0,3,9.0,7,1,0,0,0,0,1,1,0,0,0,1,118147.0
2.0,4.0,10.0,5.0,6.0,2.0,10,9.0,4,1,0,0,0,0,0,1,0,0,0,1,72000.0
32.0,34.0,34.0,5.0,7.0,0.0,10,1.0,3,0,0,1,0,0,1,0,0,0,0,1,207000.0
7.0,13.0,7.0,5.0,5.0,1.0,6,0.0,6,1,1,0,1,1,1,0,0,0,0,1,64444.0
20.0,21.0,21.0,5.0,4.0,0.0,6,0.0,7,0,1,1,1,0,0,0,1,0,1,1,53703.0
9.0,12.0,10.0,5.0,8.0,0.0,0,1.0,4,0,1,1,0,1,0,0,0,0,0,1,33941.0
7.0,14.0,7.0,3.0,4.0,1.0,6,0.0,6,0,1,0,1,1,0,0,1,0,0,1,47259.0
6.0,8.0,6.0,5.0,5.0,2.0,4,1.0,5,0,1,1,1,0,0,0,0,0,0,1,31105.0
7.0,15.0,5.0,7.0,4.0,2.0,6,3.0,8,1,0,0,1,1,0,1,0,0,0,1,61457.0
6.0,7.0,6.0,5.0,4.0,0.0,10,0.0,6,0,1,1,1,1,1,0,0,0,0,1,80000.0
19.0,26.0,19.0,6.0,5.0,0.0,1,1.0,8,0,1,1,1,0,1,0,0,0,0,1,79962.0
6.0,8.0,6.0,6.0,7.0,0.0,8,1.0,1,0,0,0,0,1,0,0,0,0,0,1,40521.0
29.0,29.0,29.0,5.0,5.0,1.0,10,0.0,6,0,1,0,1,0,1,0,0,0,0,1,172000.0
10.0,13.0,10.0,5.0,7.0,1.0,1,0.0,6,0,1,1,1,1,1,0,0,0,0,1,94501.0
15.0,22.0,15.0,5.0,4.0,2.0,6,0.0,5,1,1,0,0,0,0,1,0,0,0,1,39091.0
21.0,24.0,24.0,5.0,5.0,0.0,9,1.0,1,0,0,0,0,0,0,0,0,0,0,1,129936.0
17.0,20.0,18.0,5.0,2.0,0.0,9,10.0,9,1,1,0,1,0,1,1,1,0,0,1,76433.0
2.0,3.0,3.0,5.0,7.0,1.0,4,0.0,2,0,1,0,0,0,0,0,0,0,0,1,17945.0
24.0,37.0,10.0,5.0,1.0,0.0,10,0.0,5,0,1,1,0,0,0,0,0,0,0,1,238000.0
5.0,10.0,41.0,5.0,9.0,0.0,10,0.0,4,0,1,0,1,0,1,0,0,0,0,1,120000.0
16.0,23.0,16.0,6.0,7.0,0.0,6,0.0,6,1,1,0,1,0,0,0,0,0,0,1,11456.0
5.0,10.0,10.0,3.0,3.0,2.0,6,9.0,2,1,0,0,0,0,1,0,0,0,0,1,10488.0
10.0,17.0,10.0,6.0,5.0,0.0,3,2.0,3,0,1,1,0,0,0,0,0,0,0,1,70888.0
6.0,8.0,6.0,5.0,7.0,2.0,6,0.0,14,1,1,1,1,1,1,0,1,0,0,1,22693.0
6.0,11.0,6.0,6.0,9.0,0.0,8,8.0,5,1,1,0,0,0,0,1,0,0,0,0,55000.0
2.0,13.0,2.0,5.0,4.0,0.0,10,3.0,3,1,0,0,0,0,0,0,0,0,0,1,120000.0
3.0,6.0,10.0,3.0,1.0,0.0,6,7.0,3,0,1,0,0,0,0,0,0,0,0,0,14839.0
2.0,3.0,10.0,6.0,5.0,1.0,6,0.0,3,0,1,0,0,1,0,0,0,0,0,1,32222.0
7.0,12.0,7.0,6.0,3.0,1.0,3,9.0,4,0,0,0,0,0,0,1,0,0,1,1,118147.0
10.0,14.0,10.0,5.0,4.0,0.0,3,0.0,8,1,1,1,1,0,0,0,1,0,0,1,80555.0
8.0,9.0,10.0,5.0,2.0,2.0,8,0.0,4,0,1,0,1,0,0,0,0,0,0,1,19747.0
6.0,6.0,10.0,3.0,5.0,2.0,6,1.0,4,1,0,1,1,0,0,0,0,0,1,1,31822.0
27.0,31.0,30.0,5.0,3.0,2.0,6,0.0,10,1,1,0,1,1,0,1,1,0,0,1,32222.0
4.0,6.0,10.0,2.0,4.0,2.0,3,0.0,4,0,0,1,1,1,0,0,0,0,0,0,21481.0
2.0,10.0,10.0,5.0,7.0,2.0,6,1.0,9,1,1,0,0,1,1,1,1,0,0,1,24703.0
30.0,30.0,30.0,6.0,7.0,1.0,10,0.0,6,1,1,0,1,0,0,0,0,0,0,1,130000.0
9.0,14.0,15.0,3.0,5.0,0.0,7,0.0,4,0,1,0,1,0,0,0,1,0,0,1,37592.0
3.0,5.0,10.0,6.0,6.0,0.0,8,0.0,3,0,1,1,0,0,0,0,0,0,0,1,30000.0
6.0,8.0,6.0,5.0,6.0,1.0,6,2.0,2,0,1,0,0,0,0,0,0,0,0,1,70351.0
6.0,9.0,6.0,6.0,6.0,0.0,8,10.0,2,1,0,0,0,0,0,0,0,0,0,1,70000.0
16.0,26.0,16.0,5.0,5.0,1.0,6,0.0,4,0,1,0,0,0,1,0,0,0,0,1,62954.0
15.0,20.0,15.0,3.0,2.0,0.0,7,1.0,7,0,1,0,1,0,0,0,1,1,0,1,37592.0
4.0,6.0,4.0,5.0,9.0,0.0,10,10.0,10,1,1,1,1,0,0,0,0,1,1,1,165000.0
25.0,25.0,25.0,3.0,2.0,0.0,1,0.0,3,0,1,0,0,0,0,0,0,0,0,0,127213.0
0.0,2.0,7.0,5.0,6.0,1.0,7,1.0,9,1,1,0,1,1,1,0,0,0,0,1,27926.0
2.0,7.0,10.0,2.0,1.0,0.0,6,0.0,5,1,1,1,1,0,0,0,0,0,0,0,79279.0
10.0,14.0,10.0,5.0,7.0,2.0,6,1.0,3,1,1,0,0,0,1,0,0,0,0,1,81592.0
18.0,25.0,15.0,7.0,9.0,1.0,3,3.0,3,1,0,0,0,0,0,0,0,0,0,1,112777.0
8.0,15.0,8.0,5.0,7.0,1.0,6,10.0,8,0,1,1,1,0,1,0,1,0,0,1,64570.0
7.0,9.0,10.0,6.0,1.0,0.0,6,0.0,15,1,1,0,1,1,1,1,1,0,0,0,120000.0
12.0,33.0,19.0,7.0,4.0,1.0,9,1.0,6,0,1,0,1,0,0,1,1,0,0,1,63694.0
13.0,13.0,10.0,6.0,1.0,0.0,10,1.0,5,1,1,1,0,0,0,1,0,0,0,0,250000.0
5.0,6.0,10.0,4.0,1.0,0.0,6,0.0,3,0,1,0,0,0,0,0,1,0,0,0,12000.0
12.0,16.0,10.0,6.0,5.0,0.0,8,2.0,1,0,0,1,0,0,0,0,0,0,0,1,70000.0
2.0,5.0,2.0,2.0,4.0,1.0,6,0.0,7,0,1,1,1,1,1,0,0,1,0,1,18259.0
25.0,27.0,10.0,4.0,4.0,1.0,2,0.0,4,1,1,1,0,0,0,0,0,0,0,1,60147.0
16.0,20.0,10.0,5.0,1.0,0.0,6,0.0,5,0,0,1,0,0,0,0,0,0,0,0,167125.0
40.0,45.0,41.0,5.0,5.0,2.0,6,9.0,5,0,0,0,0,0,1,1,0,0,0,1,129524.0
2.0,7.0,3.0,6.0,4.0,2.0,2,10.0,17,1,1,1,1,1,1,1,1,1,1,1,39740.0
10.0,14.0,10.0,5.0,9.0,0.0,3,5.0,9,1,1,1,0,1,1,0,0,0,0,1,85925.0
7.0,10.0,7.0,5.0,5.0,1.0,10,1.0,7,0,1,0,1,0,1,1,0,0,0,1,102000.0
6.0,6.0,10.0,5.0,6.0,1.0,3,0.0,8,0,1,1,1,1,0,0,0,0,0,1,64444.0
8.0,11.0,8.0,4.0,7.0,0.0,0,1.0,4,1,0,0,1,1,0,0,0,0,0,1,42519.0
19.0,23.0,19.0,2.0,9.0,0.0,6,10.0,6,1,1,0,0,0,1,1,0,0,0,1,51555.0
7.0,8.0,7.0,2.0,3.0,1.0,9,0.0,6,0,1,1,1,0,0,0,1,1,0,1,42038.0
2.0,5.0,10.0,6.0,7.0,1.0,5,2.0,0,0,0,0,0,0,0,0,0,0,0,1,100962.0
10.0,35.0,18.0,5.0,4.0,1.0,6,9.0,5,1,0,0,0,0,0,1,0,0,1,1,99351.0
4.0,10.0,4.0,5.0,4.0,2.0,4,3.0,3,1,0,0,1,0,0,0,0,0,0,1,17945.0
2.0,4.0,1.0,3.0,5.0,1.0,7,1.0,6,0,0,0,1,1,1,0,1,0,0,1,20407.0
20.0,20.0,25.0,6.0,2.0,0.0,6,5.0,12,1,1,1,1,0,1,0,1,0,0,1,53703.0
2.0,17.0,10.0,6.0,2.0,0.0,9,0.0,9,1,1,1,1,0,0,0,0,1,0,1,50955.0
13.0,23.0,13.0,3.0,6.0,2.0,10,0.0,5,0,1,1,1,0,1,0,0,0,0,1,150000.0
4.0,9.0,10.0,6.0,5.0,0.0,10,3.0,6,1,0,1,1,0,0,0,0,0,1,1,155000.0
17.0,22.0,10.0,5.0,8.0,0.0,10,0.0,4,0,1,0,1,0,1,0,0,0,0,1,96000.0
0.0,4.0,8.0,5.0,8.0,0.0,4,0.0,2,0,1,0,0,0,0,0,0,0,0,1,10767.0
4.0,12.0,7.0,3.0,4.0,1.0,3,1.0,5,0,1,1,0,0,1,0,0,0,0,1,90823.0
3.0,13.0,13.0,7.0,2.0,1.0,1,10.0,1,0,0,0,0,0,0,0,0,0,0,1,79962.0
10.0,11.0,10.0,5.0,6.0,0.0,1,10.0,6,1,1,1,0,0,0,0,0,1,0,1,189002.0
18.0,28.0,10.0,5.0,4.0,0.0,6,1.0,5,1,1,0,1,0,0,0,0,0,0,1,42962.0
6.0,9.0,9.0,3.0,4.0,2.0,6,8.0,3,1,0,0,0,0,0,1,0,0,0,1,36000.0
14.0,18.0,10.0,6.0,1.0,1.0,6,1.0,2,0,0,0,1,1,0,0,0,0,0,0,53797.0
5.0,9.0,5.0,5.0,5.0,1.0,6,0.0,5,0,0,0,1,0,1,1,0,0,0,1,53703.0
10.0,15.0,10.0,5.0,1.0,0.0,9,0.0,5,0,1,1,1,0,0,0,1,0,0,0,122292.0
7.0,10.0,17.0,6.0,4.0,1.0,5,10.0,5,0,1,0,1,0,0,0,0,0,0,1,139628.0
2.0,6.0,10.0,5.0,4.0,2.0,4,1.0,7,1,0,0,1,1,0,1,0,1,0,1,41872.0
1.0,6.0,1.0,6.0,5.0,2.0,7,8.0,8,1,0,0,1,0,0,0,0,1,0,1,32222.0
20.0,25.0,10.0,6.0,1.0,0.0,10,3.0,8,1,1,0,1,1,0,0,0,0,0,0,100000.0
5.0,7.0,10.0,5.0,4.0,0.0,10,0.0,5,0,1,1,1,0,0,0,0,0,0,1,150000.0
6.0,12.0,6.0,5.0,4.0,1.0,10,0.0,7,0,1,1,1,0,0,0,1,0,0,1,94000.0
9.0,19.0,6.0,6.0,9.0,1.0,6,3.0,7,1,0,0,1,0,1,1,0,0,0,1,49407.0
7.0,33.0,8.0,3.0,4.0,0.0,6,0.0,5,1,1,1,0,0,1,1,0,0,0,1,48333.0
10.0,15.0,10.0,6.0,8.0,2.0,10,1.0,2,0,0,0,0,0,0,0,0,0,1,1,120000.0
23.0,27.0,10.0,2.0,6.0,2.0,6,8.0,3,0,0,0,1,0,1,0,0,0,0,1,70888.0
5.0,11.0,11.0,5.0,1.0,0.0,10,1.0,6,1,1,0,1,1,0,0,0,0,0,1,250000.0
18.0,24.0,18.0,5.0,4.0,0.0,9,10.0,5,0,1,1,0,0,1,0,0,0,0,1,110827.0
2.0,6.0,2.0,5.0,4.0,2.0,6,1.0,3,0,1,0,1,1,0,0,0,0,0,1,20309.0
7.0,10.0,7.0,5.0,9.0,1.0,6,10.0,5,1,1,1,0,0,0,0,0,1,0,1,102072.0
2.0,10.0,2.0,5.0,9.0,2.0,6,9.0,4,0,1,0,0,0,0,0,0,0,0,1,24707.0
13.0,45.0,10.0,6.0,4.0,0.0,6,10.0,4,0,0,0,1,0,0,0,0,0,0,0,27854.0
8.0,14.0,12.0,6.0,9.0,1.0,10,10.0,5,1,0,0,0,0,0,1,0,0,0,1,45000.0
5.0,9.0,10.0,5.0,7.0,2.0,4,10.0,4,0,0,0,1,0,0,0,0,0,0,1,23927.0
7.0,11.0,7.0,6.0,7.0,2.0,6,3.0,3,1,0,0,1,0,1,0,0,0,0,1,30899.0
11.0,14.0,14.0,5.0,8.0,1.0,10,0.0,5,0,1,1,0,1,0,0,0,0,0,1,320000.0
6.0,15.0,6.0,3.0,4.0,1.0,6,10.0,3,1,0,0,1,0,0,0,0,0,0,0,29696.0
16.0,20.0,15.0,6.0,8.0,1.0,9,7.0,5,1,1,1,0,1,0,0,0,0,0,1,254776.0
8.0,15.0,8.0,6.0,5.0,0.0,8,8.0,2,1,1,0,0,0,0,0,0,0,0,1,60000.0
30.0,25.0,20.0,6.0,9.0,1.0,10,1.0,4,1,0,0,0,0,0,1,0,1,0,1,200000.0
17.0,22.0,17.0,6.0,5.0,0.0,10,7.0,2,0,0,0,0,0,0,0,0,0,0,1,225000.0
4.0,9.0,4.0,6.0,4.0,1.0,7,0.0,4,1,0,0,0,0,1,1,0,0,0,1,32222.0
18.0,22.0,18.0,5.0,5.0,0.0,10,10.0,8,1,0,1,0,0,1,1,0,0,1,1,450000.0
7.0,7.0,19.0,6.0,4.0,2.0,2,5.0,7,1,1,1,0,0,0,0,0,1,0,1,90651.0
3.0,20.0,14.0,5.0,4.0,0.0,10,0.0,7,0,1,1,1,0,0,1,1,0,0,1,48100.0
5.0,7.0,10.0,5.0,9.0,2.0,4,0.0,3,0,0,1,0,1,0,0,0,0,0,1,47854.0
24.0,40.0,26.0,7.0,9.0,0.0,10,3.0,7,0,1,0,1,0,1,0,0,0,0,1,118651.0
4.0,6.0,6.0,6.0,5.0,1.0,3,0.0,10,1,1,1,1,1,1,0,1,0,0,1,67129.0
0.0,4.0,10.0,5.0,2.0,2.0,10,8.0,3,1,0,0,0,1,0,1,0,0,0,1,50000.0
0.0,3.0,2.0,5.0,9.0,2.0,4,1.0,4,0,1,1,0,1,0,1,0,0,0,0,28712.0
3.0,4.0,4.0,3.0,4.0,0.0,10,1.0,6,1,1,1,1,0,0,0,0,1,0,1,91200.0
3.0,10.0,3.0,3.0,4.0,2.0,3,0.0,4,0,1,0,0,0,0,0,1,0,0,1,37592.0
14.0,24.0,14.0,6.0,4.0,0.0,9,1.0,3,0,1,0,0,0,0,0,1,0,0,1,70063.0
2.0,6.0,2.0,5.0,6.0,1.0,10,4.0,3,1,1,0,0,0,0,0,0,0,0,1,100000.0
11.0,15.0,11.0,6.0,5.0,1.0,6,10.0,11,1,1,0,0,1,1,1,0,0,0,1,36000.0
5.0,8.0,6.0,5.0,9.0,1.0,10,9.0,4,1,0,0,0,0,0,1,0,0,0,1,104000.0
20.0,33.0,10.0,5.0,7.0,0.0,10,0.0,5,0,1,1,1,0,1,0,0,0,0,1,250000.0
5.0,7.0,5.0,5.0,7.0,0.0,8,0.0,3,0,1,0,0,0,0,0,1,1,0,1,36000.0
9.0,12.0,10.0,5.0,5.0,1.0,8,1.0,4,0,1,0,1,0,0,0,1,0,0,1,47393.0
7.0,7.0,8.0,6.0,4.0,1.0,6,10.0,8,1,1,1,0,0,0,0,0,1,1,1,53703.0
2.0,4.0,2.0,5.0,3.0,0.0,8,5.0,4,0,1,0,1,1,0,0,0,0,0,1,14810.0
3.0,4.0,10.0,5.0,2.0,0.0,8,2.0,3,0,1,1,0,0,0,0,0,0,0,1,13329.0
17.0,20.0,10.0,6.0,6.0,0.0,3,0.0,5,0,1,1,0,0,0,0,0,1,0,1,128887.0
10.0,15.0,12.0,6.0,7.0,0.0,2,1.0,2,0,0,0,0,0,0,0,1,0,0,1,81629.0
6.0,15.0,6.0,5.0,4.0,1.0,6,1.0,9,1,1,1,1,1,0,0,0,1,0,1,55050.0
6.0,10.0,9.0,2.0,7.0,1.0,6,0.0,5,0,1,1,0,1,0,0,0,0,0,1,103618.0
3.0,4.0,10.0,5.0,4.0,0.0,6,1.0,4,1,1,1,1,0,0,0,0,0,0,1,23765.0
12.0,24.0,12.0,6.0,7.0,1.0,6,7.0,2,0,0,0,0,0,0,0,0,0,0,0,54442.0
3.0,8.0,3.0,5.0,5.0,0.0,6,1.0,3,0,0,0,0,1,0,0,0,0,0,1,23757.0
11.0,14.0,10.0,3.0,1.0,0.0,6,0.0,7,1,1,1,0,0,1,0,1,0,0,0,137307.0
3.0,7.0,7.0,3.0,4.0,1.0,6,5.0,5,1,0,0,0,0,0,1,0,0,0,0,77992.0
13.0,13.0,13.0,4.0,9.0,1.0,3,7.0,1,0,0,0,0,0,0,0,0,0,0,1,96666.0
28.0,32.0,28.0,5.0,4.0,0.0,10,0.0,6,0,1,1,1,1,0,0,0,0,0,1,130000.0
10.0,20.0,9.0,6.0,9.0,2.0,6,1.0,10,1,1,1,0,0,0,1,0,0,0,1,334251.0
9.0,9.0,10.0,6.0,4.0,0.0,8,10.0,2,0,1,1,0,0,0,0,0,0,0,1,88862.0
2.0,8.0,2.0,5.0,9.0,1.0,6,5.0,9,1,1,1,1,0,0,0,1,1,0,1,21577.0
6.0,37.0,35.0,6.0,5.0,1.0,10,8.0,3,0,1,0,0,0,0,0,0,0,0,1,86000.0
30.0,40.0,34.0,5.0,5.0,1.0,6,6.0,5,1,1,0,0,0,0,0,1,0,0,1,72641.0
10.0,17.0,10.0,6.0,1.0,0.0,10,8.0,4,0,0,0,0,0,0,0,0,0,0,0,70000.0
3.0,11.0,3.0,6.0,7.0,0.0,6,10.0,4,1,1,1,0,0,0,0,0,1,0,1,74239.0
11.0,19.0,11.0,7.0,9.0,1.0,9,3.0,6,1,0,0,1,0,0,1,0,0,0,1,127388.0
11.0,14.0,10.0,5.0,9.0,1.0,6,8.0,5,1,0,0,0,0,1,1,0,0,0,1,102036.0
18.0,22.0,18.0,3.0,4.0,1.0,6,6.0,7,0,1,0,1,1,1,0,1,1,0,1,89249.0
21.0,24.0,10.0,6.0,7.0,1.0,3,0.0,4,0,0,1,1,0,1,0,0,0,0,1,89147.0
1.0,7.0,10.0,6.0,4.0,1.0,6,10.0,2,1,0,0,0,0,0,0,0,0,0,1,17323.0
25.0,30.0,10.0,5.0,9.0,1.0,9,6.0,5,0,1,1,1,0,1,0,0,0,0,1,382164.0
17.0,24.0,10.0,6.0,3.0,0.0,8,0.0,8,0,1,1,1,0,1,0,1,0,0,1,100000.0
9.0,12.0,10.0,5.0,4.0,1.0,3,2.0,5,0,1,1,0,1,0,0,0,0,0,0,37485.0
5.0,13.0,5.0,5.0,9.0,1.0,6,10.0,3,1,0,0,1,0,0,0,0,0,0,1,31698.0
6.0,15.0,10.0,3.0,7.0,1.0,7,4.0,5,1,0,0,1,0,0,0,0,1,0,1,37592.0
18.0,20.0,18.0,5.0,9.0,0.0,10,1.0,2,0,0,0,0,1,0,0,1,0,0,1,134000.0
8.0,10.0,9.0,5.0,4.0,1.0,6,1.0,4,0,1,0,1,0,0,0,0,0,0,0,30884.0
31.0,35.0,10.0,5.0,4.0,1.0,10,10.0,1,1,0,0,0,0,0,0,0,0,0,1,200000.0
3.0,11.0,3.0,5.0,2.0,2.0,5,0.0,3,0,1,0,1,0,1,0,0,0,0,1,38666.0
7.0,9.0,7.0,3.0,4.0,0.0,3,10.0,8,1,1,0,1,1,0,0,0,1,0,1,70888.0
7.0,9.0,10.0,5.0,4.0,1.0,10,10.0,2,1,0,0,0,0,0,0,0,0,0,1,12000.0
8.0,9.0,10.0,3.0,7.0,0.0,6,0.0,8,1,1,1,0,0,0,0,0,1,1,0,105706.0
15.0,20.0,3.0,6.0,5.0,1.0,3,6.0,8,0,1,1,0,1,0,0,0,1,0,1,102036.0
16.0,22.0,10.0,5.0,7.0,0.0,8,4.0,6,0,1,1,1,1,1,0,0,0,0,1,72000.0
2.0,8.0,3.0,5.0,4.0,2.0,5,9.0,6,1,0,0,0,0,0,1,0,0,0,1,64444.0
6.0,11.0,6.0,5.0,4.0,0.0,0,2.0,7,1,1,1,1,0,0,0,1,0,0,1,30211.0
3.0,14.0,3.0,3.0,3.0,1.0,6,0.0,5,0,1,0,1,0,1,0,0,0,0,1,28645.0
4.0,9.0,10.0,5.0,6.0,1.0,10,0.0,5,0,1,0,1,0,1,0,0,0,0,1,57500.0
4.0,5.0,17.0,6.0,5.0,0.0,10,10.0,3,0,1,0,1,0,0,0,0,0,0,1,125000.0
2.0,5.0,5.0,5.0,2.0,2.0,6,0.0,4,0,1,0,1,0,0,0,1,0,0,1,12946.0
29.0,40.0,10.0,4.0,8.0,1.0,10,8.0,7,0,1,0,1,0,1,0,0,0,0,1,160000.0
12.0,15.0,12.0,3.0,2.0,1.0,6,0.0,7,0,1,1,1,0,0,0,1,0,0,1,48333.0
27.0,13.0,10.0,5.0,6.0,0.0,10,10.0,4,0,1,0,0,0,0,0,0,0,0,1,144000.0
25.0,44.0,10.0,7.0,2.0,1.0,6,1.0,6,0,1,0,0,1,0,0,0,0,1,0,214812.0
3.0,4.0,3.0,5.0,4.0,0.0,6,2.0,7,0,1,1,1,1,0,0,0,0,0,1,24000.0
25.0,30.0,26.0,5.0,6.0,0.0,3,8.0,1,0,0,0,0,0,0,1,0,0,0,1,77332.0
33.0,30.0,34.0,3.0,6.0,0.0,3,0.0,9,1,0,1,1,1,0,0,0,1,0,1,96666.0
6.0,18.0,6.0,6.0,4.0,0.0,10,1.0,6,1,0,0,0,1,0,0,0,0,0,1,118000.0
25.0,25.0,35.0,6.0,6.0,1.0,6,0.0,14,1,1,0,1,1,0,0,0,0,0,1,115615.0
5.0,6.0,5.0,5.0,4.0,2.0,6,10.0,6,1,1,1,1,0,0,0,0,0,0,1,39777.0
3.0,3.0,15.0,6.0,5.0,0.0,10,0.0,2,0,1,0,0,0,0,0,0,0,0,1,150000.0
12.0,14.0,12.0,6.0,2.0,0.0,6,0.0,1,0,0,0,0,0,0,0,0,0,0,0,120000.0
18.0,24.0,10.0,6.0,2.0,1.0,6,0.0,7,1,1,1,1,0,0,0,1,0,0,1,107406.0
14.0,20.0,10.0,6.0,6.0,0.0,6,5.0,3,0,1,0,0,0,0,0,0,0,0,1,89852.0
5.0,7.0,24.0,4.0,9.0,1.0,3,0.0,3,0,0,0,1,0,1,0,0,0,0,1,104184.0
8.0,12.0,10.0,5.0,4.0,1.0,6,0.0,5,0,1,1,1,0,0,0,1,1,0,1,26322.0
22.0,27.0,22.0,5.0,6.0,1.0,4,1.0,1,0,0,0,0,0,0,1,0,0,0,1,64603.0
14.0,21.0,14.0,5.0,5.0,0.0,6,10.0,6,0,1,1,0,0,0,0,0,0,1,1,65000.0
11.0,18.0,11.0,5.0,7.0,1.0,4,6.0,7,0,1,1,1,1,0,0,0,0,0,1,41872.0
5.0,6.0,10.0,3.0,1.0,1.0,6,9.0,5,1,0,0,0,0,0,0,0,0,0,0,11623.0
1.0,4.0,10.0,2.0,7.0,2.0,3,0.0,6,1,1,1,0,1,1,0,0,0,0,1,17185.0
2.0,2.0,2.0,6.0,5.0,2.0,4,1.0,3,0,1,0,0,1,0,0,0,0,0,1,10169.0
30.0,33.0,10.0,5.0,9.0,1.0,9,10.0,5,1,0,1,0,1,0,0,0,1,0,1,95796.0
2.0,5.0,2.0,4.0,5.0,0.0,1,1.0,1,0,0,0,0,0,0,0,0,0,0,1,50885.0
2.0,5.0,10.0,5.0,9.0,1.0,9,0.0,4,0,0,0,0,0,0,0,0,1,0,1,51592.0
6.0,9.0,7.0,5.0,3.0,1.0,7,0.0,4,0,1,0,1,1,0,0,0,0,0,1,35444.0
27.0,41.0,10.0,3.0,4.0,0.0,6,4.0,2,1,0,0,1,0,0,0,0,0,0,0,184985.0
16.0,23.0,16.0,7.0,7.0,0.0,10,1.0,6,0,1,1,1,1,0,0,1,0,0,1,270000.0
34.0,36.0,36.0,5.0,4.0,1.0,1,6.0,10,1,1,1,1,0,1,1,0,0,0,1,90866.0
10.0,12.0,9.0,5.0,4.0,0.0,6,0.0,3,0,1,1,0,0,0,0,0,1,0,0,57999.0
12.0,18.0,12.0,5.0,5.0,0.0,7,1.0,10,1,1,0,1,1,0,1,0,1,1,1,69814.0
3.0,4.0,4.0,5.0,5.0,1.0,3,2.0,5,0,1,0,1,0,0,0,1,0,0,1,42962.0
3.0,10.0,3.0,6.0,4.0,1.0,3,5.0,4,0,0,1,0,0,1,0,0,1,0,1,32222.0
17.0,25.0,24.0,6.0,5.0,1.0,10,0.0,4,0,1,0,1,0,1,0,0,0,0,1,65000.0
20.0,13.0,20.0,2.0,5.0,1.0,0,1.0,4,0,1,0,1,0,0,0,1,0,0,1,12308.0
10.0,13.0,10.0,6.0,9.0,0.0,8,10.0,2,0,0,0,0,0,0,0,0,0,0,1,64178.0
0.0,2.0,1.0,3.0,7.0,1.0,6,2.0,3,0,1,1,0,0,0,0,0,0,0,1,32222.0
11.0,11.0,11.0,6.0,7.0,1.0,4,8.0,1,0,0,0,0,0,1,0,0,0,0,1,22731.0
4.0,9.0,6.0,6.0,4.0,0.0,6,4.0,3,1,0,0,1,0,0,1,0,0,0,1,57999.0
30.0,35.0,31.0,6.0,2.0,0.0,10,0.0,6,1,0,0,1,0,1,0,1,0,0,1,103000.0
11.0,15.0,11.0,5.0,4.0,2.0,10,0.0,8,0,1,1,1,1,0,0,1,0,1,1,118000.0
10.0,10.0,10.0,7.0,6.0,1.0,3,9.0,2,0,0,0,0,0,0,0,0,0,0,1,85925.0
2.0,5.0,10.0,3.0,5.0,0.0,10,7.0,6,0,1,1,0,0,0,0,0,0,0,1,80000.0
25.0,40.0,10.0,5.0,5.0,0.0,10,1.0,5,0,1,1,1,0,1,0,0,0,0,1,150000.0
3.0,7.0,3.0,5.0,9.0,1.0,4,0.0,6,1,1,1,0,1,0,1,0,1,0,1,68192.0
8.0,10.0,8.0,5.0,4.0,0.0,6,1.0,3,0,0,0,0,0,0,0,0,0,1,1,112777.0
15.0,16.0,16.0,3.0,5.0,0.0,9,2.0,6,0,1,1,1,0,0,0,0,1,0,1,171974.0
4.0,10.0,10.0,6.0,4.0,1.0,7,0.0,5,0,1,0,1,1,0,1,0,0,0,1,29000.0
5.0,8.0,10.0,6.0,2.0,1.0,8,1.0,6,0,0,0,1,0,0,0,1,1,0,1,12342.0
2.0,6.0,2.0,5.0,4.0,0.0,6,5.0,11,1,1,0,0,1,0,1,1,1,0,1,30914.0
30.0,28.0,10.0,6.0,1.0,1.0,6,4.0,4,1,0,0,1,0,0,0,0,0,0,0,95384.0
8.0,12.0,8.0,5.0,5.0,1.0,4,1.0,3,1,0,0,0,0,0,0,0,1,0,1,38283.0
25.0,30.0,25.0,6.0,2.0,1.0,6,0.0,4,1,0,1,1,0,0,0,0,1,0,1,112312.0
5.0,9.0,10.0,6.0,9.0,0.0,8,10.0,5,1,0,0,1,1,0,0,0,0,0,1,65000.0
4.0,6.0,10.0,3.0,7.0,1.0,6,2.0,2,0,0,1,0,0,0,0,0,0,0,1,37592.0
2.0,5.0,2.0,5.0,4.0,0.0,10,0.0,3,0,1,1,0,0,0,0,0,0,0,1,72000.0
2.0,6.0,10.0,5.0,4.0,1.0,5,2.0,5,1,1,1,0,0,1,0,0,0,0,1,53703.0
8.0,8.0,22.0,4.0,5.0,0.0,0,0.0,11,1,1,1,1,1,0,0,0,1,0,1,33568.0
22.0,34.0,22.0,6.0,5.0,1.0,6,0.0,5,0,1,1,1,1,0,0,0,0,0,1,112777.0
20.0,24.0,30.0,5.0,5.0,0.0,10,0.0,6,0,1,0,1,1,1,0,0,0,0,1,11000.0
2.0,5.0,10.0,5.0,4.0,1.0,6,10.0,2,1,0,0,0,0,0,0,0,0,0,0,38996.0
6.0,8.0,10.0,6.0,7.0,1.0,6,0.0,1,0,0,0,0,0,0,0,0,0,0,1,77678.0
1.0,4.0,1.0,2.0,5.0,1.0,3,7.0,7,0,0,0,0,0,1,1,0,1,0,0,13963.0
18.0,25.0,10.0,6.0,9.0,0.0,6,9.0,3,0,0,0,0,0,1,1,0,0,0,1,70000.0
10.0,12.0,10.0,6.0,4.0,1.0,6,1.0,3,0,0,1,0,0,0,0,0,0,0,1,76373.0
6.0,8.0,10.0,3.0,5.0,1.0,6,10.0,1,0,1,0,0,0,0,0,0,0,0,1,79279.0
3.0,20.0,3.0,6.0,3.0,1.0,6,0.0,6,0,1,1,0,1,0,0,0,1,1,1,111417.0
2.0,7.0,10.0,5.0,5.0,1.0,6,2.0,3,0,1,1,0,0,0,0,0,0,0,1,20407.0
11.0,22.0,15.0,6.0,4.0,1.0,6,1.0,12,1,1,1,0,1,0,1,1,0,0,1,91295.0
10.0,20.0,10.0,6.0,6.0,0.0,3,10.0,4,0,1,0,0,0,0,0,1,0,1,1,103110.0
6.0,20.0,7.0,7.0,5.0,1.0,3,8.0,4,1,0,0,0,0,0,1,0,0,1,1,80555.0
11.0,19.0,11.0,6.0,2.0,0.0,6,0.0,2,0,0,1,0,0,0,0,0,0,0,1,26852.0
10.0,14.0,11.0,5.0,9.0,0.0,6,1.0,2,0,0,0,0,0,1,0,0,0,0,1,86309.0
4.0,15.0,4.0,5.0,2.0,1.0,6,0.0,5,1,1,0,1,0,0,0,0,0,1,0,37592.0
7.0,20.0,10.0,5.0,3.0,1.0,6,9.0,11,1,1,0,1,1,1,1,1,0,0,1,61457.0
4.0,8.0,10.0,5.0,7.0,1.0,6,0.0,6,0,1,1,1,1,1,0,0,1,0,1,118919.0
15.0,17.0,10.0,6.0,8.0,0.0,8,3.0,3,1,0,0,1,0,0,0,0,0,0,0,80000.0
1.0,15.0,17.0,6.0,7.0,2.0,6,10.0,5,1,1,1,1,0,0,0,0,0,0,1,68322.0
14.0,20.0,16.0,6.0,7.0,1.0,3,0.0,8,0,1,1,1,1,0,0,0,1,0,1,155984.0
14.0,16.0,14.0,5.0,5.0,0.0,10,0.0,8,0,1,1,1,0,1,0,0,0,0,1,192000.0
7.0,8.0,10.0,2.0,3.0,1.0,6,1.0,3,0,1,0,1,1,0,0,0,0,0,1,38046.0
20.0,25.0,20.0,5.0,2.0,0.0,6,0.0,3,0,0,1,0,0,0,0,0,0,0,0,80000.0
14.0,19.0,14.0,6.0,7.0,0.0,3,1.0,3,0,1,0,0,1,0,0,0,0,0,0,66592.0
12.0,13.0,10.0,5.0,4.0,1.0,5,1.0,2,0,0,0,0,1,0,0,0,0,0,1,71425.0
10.0,20.0,10.0,6.0,4.0,0.0,6,0.0,5,0,1,0,1,0,0,0,1,0,0,1,49493.0
12.0,18.0,12.0,6.0,7.0,1.0,10,10.0,5,1,0,1,0,1,0,0,0,0,0,1,180000.0
16.0,30.0,30.0,5.0,5.0,0.0,6,0.0,4,0,1,0,1,1,0,0,0,0,0,1,45607.0
6.0,12.0,6.0,6.0,5.0,0.0,8,1.0,3,0,1,0,0,0,0,0,1,0,0,1,40000.0
5.0,9.0,10.0,5.0,3.0,2.0,6,1.0,2,1,0,0,0,0,0,0,0,1,0,1,15722.0
23.0,24.0,24.0,5.0,2.0,0.0,6,0.0,4,0,1,1,1,0,1,0,0,0,0,1,75000.0
37.0,47.0,37.0,5.0,4.0,0.0,10,9.0,4,0,1,0,0,0,0,1,0,0,0,1,135000.0
6.0,6.0,7.0,2.0,4.0,0.0,6,0.0,10,0,1,1,1,0,1,1,1,1,1,1,76307.0
22.0,28.0,10.0,1.0,2.0,0.0,8,1.0,9,0,1,0,1,1,0,0,1,1,0,1,60000.0
26.0,30.0,10.0,5.0,6.0,0.0,6,1.0,2,0,0,0,1,0,0,0,0,0,0,1,41457.0
33.0,33.0,33.0,3.0,4.0,2.0,0,10.0,3,1,0,0,0,0,0,0,0,0,1,1,22378.0
5.0,8.0,5.0,5.0,3.0,1.0,4,7.0,6,1,1,0,1,1,0,0,0,0,0,1,19142.0
2.0,7.0,3.0,5.0,6.0,2.0,10,4.0,9,1,1,0,1,0,1,1,0,0,0,1,40000.0
4.0,5.0,10.0,6.0,6.0,1.0,1,7.0,6,0,1,1,0,1,0,0,0,0,0,1,78508.0
3.0,5.0,3.0,5.0,7.0,1.0,6,0.0,5,0,1,0,1,1,0,0,1,0,0,1,34447.0
9.0,13.0,9.0,6.0,6.0,1.0,6,1.0,2,0,0,0,1,0,0,0,0,0,0,1,88912.0
12.0,20.0,12.0,5.0,9.0,1.0,6,10.0,6,0,1,0,1,1,0,0,0,0,0,1,70541.0
1.0,3.0,10.0,6.0,4.0,0.0,6,0.0,5,0,1,0,0,0,0,0,0,1,0,1,46185.0
24.0,24.0,10.0,3.0,7.0,0.0,8,10.0,9,1,1,1,1,1,1,0,0,0,0,1,72000.0
25.0,40.0,25.0,3.0,5.0,1.0,6,0.0,10,1,0,0,1,1,1,1,0,1,0,1,139271.0
7.0,11.0,7.0,5.0,4.0,0.0,4,1.0,5,0,1,1,1,0,0,0,0,1,0,1,21056.0
12.0,16.0,13.0,2.0,5.0,0.0,6,4.0,13,1,1,1,1,1,0,1,1,1,0,1,118919.0
4.0,4.0,4.0,3.0,8.0,0.0,3,2.0,10,0,1,1,0,1,0,1,0,1,0,1,51555.0
9.0,17.0,10.0,3.0,5.0,0.0,10,1.0,7,0,1,1,0,0,0,0,0,0,0,1,154000.0
2.0,6.0,3.0,6.0,5.0,2.0,6,4.0,2,1,0,0,0,0,0,1,0,0,0,1,14566.0
13.0,35.0,13.0,5.0,4.0,0.0,6,1.0,2,0,0,0,0,0,1,0,0,0,0,1,161109.0
30.0,40.0,30.0,6.0,1.0,0.0,1,0.0,9,1,1,0,1,0,0,0,1,0,0,1,72693.0
5.0,7.0,10.0,5.0,3.0,2.0,6,7.0,3,0,0,0,0,1,0,0,0,0,0,1,10692.0
6.0,10.0,10.0,5.0,1.0,1.0,2,1.0,8,1,0,0,1,0,1,1,1,0,0,0,90221.0
28.0,48.0,36.0,5.0,4.0,0.0,1,1.0,4,0,1,0,1,0,1,0,0,0,0,1,66877.0
25.0,30.0,10.0,5.0,4.0,1.0,10,6.0,6,0,1,1,1,0,1,0,0,0,0,1,190000.0
17.0,23.0,10.0,6.0,2.0,0.0,8,0.0,5,0,1,0,1,0,0,0,1,0,0,1,53317.0
5.0,10.0,4.0,1.0,5.0,0.0,8,2.0,6,0,1,1,1,0,0,0,0,0,0,1,31000.0
11.0,12.0,8.0,6.0,4.0,0.0,10,10.0,2,1,0,0,0,0,0,0,0,0,1,1,201000.0
3.0,4.0,4.0,1.0,9.0,1.0,6,1.0,1,0,0,0,0,1,0,0,0,0,0,1,71765.0
4.0,5.0,10.0,1.0,1.0,0.0,6,7.0,5,0,1,1,1,0,0,0,0,0,0,0,23123.0
1.0,3.0,1.0,5.0,6.0,2.0,4,0.0,3,0,1,1,0,0,0,0,0,0,0,1,16749.0
4.0,7.0,4.0,5.0,3.0,0.0,7,1.0,5,1,1,1,1,0,0,0,0,0,0,1,53488.0
11.0,16.0,10.0,6.0,4.0,0.0,6,1.0,4,0,0,0,1,0,1,0,0,0,0,1,53703.0
5.0,10.0,10.0,6.0,4.0,2.0,3,10.0,3,0,0,0,0,1,0,1,0,0,1,1,64444.0
24.0,42.0,31.0,4.0,4.0,0.0,0,10.0,11,1,1,1,1,0,1,1,1,0,0,1,35806.0
6.0,7.0,10.0,5.0,3.0,0.0,10,0.0,2,0,1,0,0,0,0,0,0,0,0,1,195000.0
19.0,30.0,21.0,6.0,7.0,1.0,10,3.0,3,1,0,0,0,0,0,0,0,0,0,1,200000.0
4.0,11.0,4.0,6.0,6.0,1.0,6,1.0,5,1,1,1,0,0,0,0,0,1,0,1,32222.0
15.0,24.0,14.0,5.0,2.0,0.0,10,10.0,8,1,0,1,0,0,1,1,0,0,1,1,100000.0
7.0,13.0,10.0,6.0,9.0,1.0,2,10.0,9,1,1,0,1,0,0,0,1,0,0,1,42962.0
3.0,10.0,7.0,5.0,3.0,1.0,5,1.0,4,1,1,0,0,0,0,0,0,0,0,0,69814.0
3.0,6.0,7.0,2.0,3.0,1.0,5,2.0,6,0,1,1,1,0,0,0,0,0,0,1,37442.0
34.0,38.0,10.0,7.0,1.0,0.0,6,10.0,9,1,0,0,0,0,0,1,0,0,0,0,61098.0
1.0,4.0,10.0,6.0,6.0,1.0,6,4.0,2,0,0,0,1,0,0,0,0,0,0,1,38666.0
11.0,16.0,11.0,6.0,4.0,0.0,10,10.0,4,1,1,0,0,0,0,0,0,0,0,1,100000.0
6.0,8.0,6.0,3.0,3.0,2.0,7,0.0,4,0,1,1,0,0,0,0,0,0,0,1,36518.0
5.0,9.0,5.0,2.0,5.0,2.0,3,9.0,6,1,0,0,0,1,0,1,0,1,0,1,53703.0
10.0,11.0,10.0,2.0,2.0,0.0,6,7.0,4,0,0,0,0,1,0,0,0,0,0,0,121429.0
7.0,15.0,10.0,6.0,6.0,0.0,3,0.0,5,1,1,1,1,1,0,0,0,0,0,1,62296.0
37.0,37.0,37.0,2.0,6.0,2.0,6,9.0,10,1,1,0,1,1,1,1,0,1,0,1,64444.0
14.0,8.0,10.0,5.0,3.0,0.0,6,1.0,4,0,0,0,0,0,0,0,0,0,1,1,29427.0
12.0,11.0,11.0,5.0,3.0,0.0,3,0.0,6,0,1,1,0,0,0,0,0,0,1,1,96666.0
8.0,12.0,8.0,5.0,6.0,1.0,10,0.0,5,1,1,1,0,0,1,0,0,0,0,1,140000.0
15.0,15.0,24.0,3.0,2.0,0.0,10,10.0,6,0,1,1,1,0,0,0,0,1,0,1,250000.0
32.0,32.0,10.0,6.0,4.0,1.0,6,0.0,10,1,1,0,1,0,0,1,1,0,0,1,69814.0
10.0,12.0,10.0,6.0,4.0,0.0,2,4.0,3,1,1,0,0,0,0,0,0,0,0,1,85925.0
3.0,5.0,12.0,6.0,3.0,0.0,8,0.0,8,1,1,1,1,0,0,0,0,0,0,0,36000.0
3.0,5.0,15.0,2.0,4.0,0.0,10,0.0,8,1,1,1,1,0,1,0,0,0,0,1,76000.0
24.0,29.0,24.0,5.0,4.0,2.0,6,1.0,2,0,0,0,1,0,1,0,0,0,0,1,115202.0
10.0,15.0,10.0,5.0,2.0,0.0,6,7.0,5,0,1,1,1,0,0,0,0,0,0,1,76821.0
5.0,5.0,10.0,5.0,4.0,2.0,4,2.0,4,0,1,1,0,1,0,0,0,0,0,1,14356.0
1.0,4.0,10.0,6.0,7.0,1.0,3,10.0,9,1,0,0,0,1,0,1,0,0,0,1,59073.0
16.0,30.0,10.0,5.0,1.0,0.0,6,0.0,4,0,0,0,1,0,0,0,0,0,0,0,66066.0
26.0,29.0,26.0,2.0,2.0,0.0,6,0.0,5,0,1,0,1,0,1,0,0,0,0,1,48333.0
20.0,25.0,20.0,5.0,4.0,1.0,6,5.0,2,0,0,0,0,1,0,0,0,0,0,1,27540.0
6.0,10.0,30.0,5.0,3.0,1.0,6,10.0,4,1,0,0,0,0,0,0,1,0,0,1,28033.0
8.0,10.0,8.0,6.0,8.0,0.0,8,6.0,1,0,0,0,0,1,0,0,0,0,0,1,131400.0
2.0,4.0,3.0,1.0,2.0,2.0,9,0.0,6,0,1,1,1,0,1,0,0,0,0,0,30573.0
16.0,17.0,16.0,1.0,3.0,0.0,10,0.0,7,0,1,0,1,0,1,0,0,0,1,1,300000.0
8.0,10.0,12.0,2.0,2.0,0.0,6,0.0,5,1,1,0,1,0,0,0,1,0,0,1,48000.0
14.0,24.0,10.0,6.0,5.0,0.0,8,1.0,7,0,1,0,1,1,0,1,0,0,0,1,57625.0
10.0,22.0,10.0,3.0,2.0,1.0,6,1.0,1,0,0,0,0,0,1,0,0,0,0,1,35444.0
6.0,10.0,4.0,3.0,5.0,1.0,2,5.0,3,1,1,0,0,0,0,0,0,0,0,1,35444.0
3.0,5.0,3.0,5.0,5.0,0.0,10,0.0,8,1,1,1,0,0,1,0,0,1,0,1,104000.0
8.0,10.0,8.0,5.0,7.0,2.0,10,1.0,6,0,1,1,1,0,1,0,0,0,0,1,175000.0
2.0,5.0,10.0,5.0,5.0,2.0,6,0.0,3,1,0,1,0,0,0,0,0,0,0,1,10794.0
34.0,37.0,33.0,5.0,6.0,0.0,10,10.0,3,0,0,0,0,1,0,1,0,0,0,1,134000.0
28.0,40.0,33.0,6.0,4.0,0.0,10,7.0,10,1,1,0,1,1,1,0,0,0,0,1,130000.0
1.0,3.0,2.0,2.0,9.0,2.0,6,1.0,13,1,1,1,1,1,0,0,0,1,1,0,55495.0
2.0,3.0,2.0,3.0,3.0,1.0,10,0.0,5,1,1,0,1,0,1,0,0,0,0,1,71000.0
16.0,22.0,16.0,6.0,9.0,0.0,6,2.0,3,0,1,1,0,0,0,0,0,0,0,1,155739.0
3.0,4.0,4.0,5.0,4.0,0.0,6,0.0,3,0,1,0,1,0,0,0,0,0,0,1,28458.0
44.0,49.0,10.0,6.0,1.0,0.0,6,0.0,1,0,0,0,0,0,1,0,0,0,0,0,144842.0
9.0,15.0,9.0,6.0,7.0,1.0,3,1.0,2,0,0,0,0,1,0,0,0,0,0,1,96666.0
27.0,40.0,27.0,3.0,4.0,0.0,10,0.0,10,1,1,0,1,0,1,0,1,0,0,1,100000.0
8.0,10.0,8.0,2.0,9.0,1.0,3,1.0,7,0,1,1,0,0,1,0,1,0,0,1,85925.0
11.0,15.0,10.0,5.0,7.0,0.0,6,1.0,4,0,1,0,1,0,0,0,1,0,0,1,90325.0
9.0,10.0,9.0,5.0,4.0,2.0,6,0.0,1,0,0,0,0,0,0,0,1,0,0,1,52503.0
1.0,6.0,2.0,6.0,5.0,1.0,4,0.0,2,1,1,0,0,0,0,0,0,0,0,1,14356.0
0.0,8.0,10.0,3.0,2.0,1.0,3,1.0,2,1,0,0,0,0,0,0,0,0,1,0,10741.0
10.0,18.0,18.0,5.0,9.0,0.0,10,0.0,5,0,1,1,1,0,1,0,0,0,0,1,110000.0
9.0,12.0,9.0,6.0,9.0,0.0,10,2.0,7,0,1,1,0,0,0,0,0,0,1,1,140000.0
9.0,14.0,10.0,5.0,4.0,2.0,5,9.0,3,1,0,0,0,0,0,1,0,0,0,1,59073.0
8.0,18.0,8.0,5.0,9.0,0.0,3,0.0,9,1,1,1,0,0,1,1,0,1,0,1,123517.0
7.0,11.0,7.0,6.0,7.0,1.0,6,1.0,1,0,0,0,0,1,0,0,0,0,0,1,103571.0
26.0,36.0,22.0,6.0,5.0,0.0,10,10.0,9,1,1,1,1,0,1,0,0,0,0,1,175000.0
2.0,5.0,10.0,3.0,5.0,1.0,8,10.0,3,1,1,0,0,0,0,0,0,0,0,1,14000.0
12.0,18.0,10.0,6.0,3.0,2.0,0,0.0,12,1,1,0,1,1,1,1,1,0,0,0,46622.0
11.0,15.0,10.0,6.0,7.0,0.0,6,0.0,8,1,1,0,1,1,1,0,0,0,0,1,40096.0
5.0,9.0,5.0,5.0,4.0,2.0,6,2.0,4,0,1,1,1,0,0,0,0,0,0,1,18351.0
12.0,26.0,15.0,2.0,5.0,2.0,3,8.0,8,1,0,0,0,1,1,1,0,0,0,1,123517.0
11.0,15.0,11.0,3.0,4.0,0.0,6,1.0,13,1,1,1,1,1,0,0,1,1,1,0,91562.0
2.0,5.0,10.0,5.0,4.0,2.0,6,0.0,6,1,1,1,1,0,0,0,1,0,0,1,64762.0
11.0,15.0,11.0,5.0,5.0,1.0,10,0.0,3,0,0,0,1,0,1,0,0,0,0,1,108000.0
12.0,15.0,15.0,5.0,7.0,0.0,0,1.0,5,0,0,0,0,1,0,0,0,0,1,1,111892.0
4.0,6.0,5.0,4.0,3.0,1.0,6,2.0,5,0,1,0,1,1,0,0,0,0,0,1,23844.0
26.0,33.0,26.0,6.0,8.0,0.0,6,1.0,5,1,0,0,0,0,0,1,0,1,0,1,136105.0
11.0,16.0,12.0,2.0,4.0,0.0,6,0.0,3,0,1,1,0,0,0,0,0,0,0,1,53703.0
7.0,19.0,15.0,5.0,9.0,1.0,6,1.0,3,0,0,0,0,1,0,0,0,0,0,1,75976.0
0.0,3.0,0.0,3.0,5.0,2.0,6,10.0,2,0,0,0,0,1,0,0,0,0,0,1,30933.0
12.0,17.0,12.0,6.0,3.0,1.0,6,0.0,7,0,1,1,1,0,1,0,0,0,0,1,112777.0
28.0,34.0,26.0,5.0,3.0,0.0,7,10.0,8,1,1,0,1,1,0,0,0,1,1,1,171850.0
21.0,25.0,20.0,5.0,4.0,0.0,10,0.0,5,0,1,1,1,1,0,0,0,0,0,1,200000.0
5.0,7.0,11.0,5.0,5.0,1.0,3,10.0,6,1,1,0,1,0,0,1,0,0,0,1,64444.0
14.0,21.0,16.0,5.0,5.0,0.0,1,0.0,5,0,1,1,1,0,0,0,0,0,0,1,142478.0
0.0,3.0,10.0,3.0,3.0,2.0,6,10.0,10,1,1,1,1,0,1,0,0,0,1,1,36667.0
25.0,25.0,25.0,7.0,4.0,0.0,3,0.0,6,1,1,1,1,0,0,0,0,0,0,1,64444.0
5.0,9.0,5.0,5.0,4.0,1.0,6,0.0,3,0,1,1,0,1,0,0,0,0,0,1,66592.0
2.0,5.0,2.0,5.0,3.0,2.0,10,0.0,8,1,1,0,1,0,0,0,1,0,0,0,32000.0
5.0,9.0,5.0,5.0,7.0,1.0,6,6.0,5,0,1,0,1,1,0,1,1,0,0,1,27252.0
1.0,6.0,1.0,5.0,3.0,2.0,3,9.0,5,0,1,1,0,0,0,1,0,0,0,1,48333.0
39.0,43.0,43.0,6.0,2.0,0.0,6,0.0,5,1,1,0,1,0,0,0,0,0,0,1,107406.0
8.0,14.0,8.0,6.0,5.0,1.0,2,0.0,8,0,1,1,1,0,1,0,1,0,0,1,82810.0
2.0,2.0,10.0,2.0,5.0,1.0,9,0.0,5,0,0,0,1,1,1,0,0,0,0,1,29299.0
5.0,8.0,6.0,7.0,9.0,2.0,10,10.0,7,1,1,0,0,1,0,0,0,0,0,1,163000.0
7.0,12.0,7.0,5.0,4.0,2.0,10,10.0,5,1,0,0,1,0,1,0,0,0,0,1,130000.0
3.0,10.0,2.0,5.0,9.0,1.0,6,0.0,5,0,0,0,1,1,0,0,0,1,1,1,35444.0
17.0,21.0,10.0,5.0,1.0,0.0,6,1.0,6,1,1,1,0,0,0,0,0,0,1,0,60000.0
11.0,16.0,11.0,5.0,9.0,1.0,10,0.0,7,1,1,0,1,1,0,0,0,1,0,1,165000.0
12.0,20.0,14.0,7.0,7.0,0.0,10,0.0,10,1,1,1,1,1,1,0,1,0,0,1,500000.0
10.0,21.0,25.0,3.0,2.0,0.0,10,0.0,3,0,1,0,0,0,0,0,0,0,0,1,80000.0
17.0,21.0,17.0,6.0,7.0,0.0,6,4.0,3,1,0,0,1,0,0,0,0,0,0,1,35000.0
4.0,10.0,15.0,6.0,8.0,0.0,10,10.0,2,1,0,0,1,0,0,0,0,0,0,1,120000.0
11.0,14.0,14.0,6.0,3.0,0.0,8,1.0,10,1,1,1,1,0,1,1,1,0,0,1,98736.0
11.0,15.0,11.0,3.0,5.0,1.0,9,10.0,1,0,0,0,0,0,0,0,0,0,0,1,101910.0
5.0,12.0,8.0,7.0,4.0,2.0,6,10.0,2,1,0,0,0,0,0,0,0,0,0,1,47259.0
5.0,9.0,5.0,5.0,9.0,1.0,4,1.0,2,0,0,0,0,1,0,0,0,0,0,1,11126.0
32.0,40.0,32.0,6.0,4.0,1.0,3,1.0,1,0,0,0,0,1,0,0,0,0,0,1,104184.0
15.0,25.0,15.0,5.0,9.0,0.0,10,1.0,6,1,1,0,0,0,0,0,0,1,0,1,244000.0
24.0,32.0,10.0,4.0,1.0,0.0,10,0.0,5,0,0,0,0,1,1,0,0,0,0,0,110000.0
13.0,18.0,19.0,6.0,5.0,1.0,6,1.0,4,0,0,0,0,1,0,0,1,0,0,0,41697.0
1.0,5.0,1.0,2.0,2.0,2.0,6,8.0,6,0,1,1,1,1,0,0,0,0,0,1,31477.0
3.0,7.0,3.0,3.0,9.0,1.0,3,0.0,9,1,0,1,1,1,0,1,0,1,1,1,23200.0
26.0,29.0,26.0,6.0,7.0,1.0,6,9.0,1,0,0,0,0,0,0,0,0,0,1,1,91295.0
12.0,12.0,10.0,6.0,1.0,0.0,6,0.0,4,0,1,1,1,0,1,0,0,0,0,0,24746.0
13.0,14.0,10.0,3.0,5.0,1.0,3,6.0,3,0,1,1,0,0,0,0,0,0,0,1,75184.0
1.0,5.0,1.0,2.0,7.0,1.0,6,1.0,5,1,0,0,1,0,0,0,0,0,0,0,19820.0
21.0,38.0,10.0,6.0,5.0,0.0,6,8.0,2,0,0,0,1,0,0,0,0,0,0,0,34748.0
0.0,2.0,10.0,2.0,4.0,2.0,10,9.0,3,0,0,0,0,0,0,1,0,0,0,1,30000.0
24.0,24.0,25.0,3.0,4.0,0.0,10,8.0,7,0,1,1,1,1,1,0,0,0,0,1,120000.0
4.0,6.0,4.0,5.0,6.0,0.0,9,0.0,4,0,1,1,0,1,0,0,0,0,0,1,85350.0
12.0,16.0,10.0,5.0,5.0,1.0,9,8.0,7,1,1,1,0,1,1,0,0,0,1,1,91082.0
3.0,7.0,3.0,3.0,7.0,0.0,6,1.0,10,1,1,0,1,1,0,1,0,0,0,1,11972.0
20.0,20.0,10.0,4.0,4.0,1.0,6,10.0,2,0,0,0,1,0,1,0,0,0,0,0,61827.0
10.0,11.0,10.0,3.0,9.0,0.0,6,7.0,3,0,0,0,1,0,0,0,0,1,0,1,58238.0
6.0,8.0,10.0,5.0,5.0,1.0,7,2.0,2,0,1,0,0,0,0,0,0,0,0,1,59073.0
10.0,15.0,10.0,6.0,5.0,0.0,9,1.0,2,0,1,0,0,1,0,0,0,0,0,1,59872.0
22.0,25.0,23.0,2.0,3.0,2.0,6,0.0,6,0,1,0,1,0,1,1,0,0,0,1,104476.0
0.0,5.0,10.0,2.0,4.0,2.0,6,0.0,3,0,1,0,0,0,1,0,0,0,0,1,19333.0
14.0,26.0,13.0,6.0,5.0,0.0,7,1.0,2,0,0,0,0,0,0,0,0,0,0,1,69814.0
4.0,13.0,4.0,5.0,5.0,0.0,0,7.0,4,0,1,1,1,0,0,0,0,0,0,1,13427.0
7.0,12.0,10.0,7.0,4.0,0.0,6,10.0,1,0,0,0,0,0,0,0,0,0,0,1,11923.0
3.0,9.0,3.0,5.0,9.0,1.0,10,0.0,6,0,1,1,0,1,0,1,0,0,0,1,200000.0
7.0,12.0,10.0,6.0,5.0,1.0,3,7.0,4,0,1,0,1,0,0,0,0,0,0,1,79481.0
6.0,12.0,10.0,5.0,5.0,1.0,3,1.0,14,1,1,0,1,1,1,0,1,1,0,1,71425.0
11.0,17.0,11.0,6.0,5.0,1.0,6,1.0,2,0,0,0,0,1,0,0,0,0,1,1,80426.0
20.0,27.0,20.0,5.0,7.0,0.0,6,1.0,2,0,0,0,1,1,0,0,0,0,0,1,43401.0
23.0,29.0,25.0,5.0,7.0,0.0,10,0.0,3,0,1,1,0,0,0,0,0,0,0,1,149000.0
4.0,5.0,4.0,6.0,4.0,0.0,8,1.0,3,1,1,0,1,0,0,0,0,0,0,1,39600.0
7.0,9.0,7.0,5.0,7.0,0.0,8,1.0,4,0,1,0,1,0,0,0,1,0,0,1,157300.0
25.0,25.0,25.0,3.0,4.0,1.0,6,0.0,9,0,1,1,1,1,1,0,0,0,0,1,91295.0
12.0,15.0,13.0,4.0,9.0,0.0,1,10.0,4,0,0,0,1,1,0,0,0,0,0,1,87231.0
21.0,30.0,21.0,7.0,2.0,1.0,6,1.0,6,0,1,0,1,1,0,0,0,0,0,1,67666.0
2.0,6.0,2.0,6.0,9.0,1.0,6,0.0,6,0,1,0,1,0,1,0,0,0,0,1,51555.0
3.0,4.0,3.0,5.0,4.0,0.0,6,1.0,8,1,1,1,1,0,0,0,0,0,1,1,23073.0
10.0,13.0,9.0,3.0,2.0,0.0,4,1.0,3,0,1,1,1,0,0,0,0,0,0,1,41872.0
28.0,37.0,10.0,3.0,1.0,0.0,1,0.0,4,0,1,0,1,0,0,0,1,0,0,0,87231.0
12.0,17.0,16.0,6.0,3.0,0.0,3,8.0,7,1,1,1,1,0,0,0,1,0,1,1,161109.0
7.0,10.0,8.0,5.0,9.0,1.0,4,1.0,2,0,0,0,0,0,0,0,0,1,0,1,65799.0
8.0,12.0,7.0,6.0,4.0,0.0,6,0.0,3,0,1,0,1,0,1,0,0,0,0,0,59073.0
6.0,14.0,10.0,5.0,4.0,1.0,6,0.0,6,0,1,1,1,1,0,0,0,0,0,1,81629.0
20.0,28.0,20.0,5.0,3.0,0.0,10,0.0,6,1,1,1,1,1,0,0,0,0,0,1,165000.0
2.0,7.0,2.0,6.0,7.0,1.0,6,0.0,3,0,0,0,0,1,0,1,0,0,0,1,32222.0
7.0,8.0,12.0,5.0,2.0,1.0,9,10.0,5,1,0,0,1,0,0,0,0,0,1,1,61146.0
20.0,25.0,21.0,5.0,5.0,0.0,6,1.0,5,1,0,0,1,0,0,1,0,0,0,1,86309.0
6.0,15.0,7.0,6.0,6.0,0.0,0,0.0,7,1,1,1,1,1,0,0,0,1,0,1,156649.0
21.0,24.0,20.0,6.0,4.0,0.0,6,7.0,2,0,0,0,0,0,0,0,0,0,0,0,60560.0
1.0,3.0,10.0,2.0,5.0,2.0,3,0.0,7,1,1,1,1,0,1,0,0,0,0,1,10955.0
18.0,20.0,10.0,6.0,2.0,1.0,9,2.0,4,0,1,0,0,0,0,0,1,1,0,1,60509.0
3.0,3.0,10.0,4.0,7.0,2.0,0,4.0,5,1,1,0,1,0,0,0,0,0,0,1,10070.0
5.0,9.0,6.0,3.0,1.0,0.0,10,10.0,6,1,1,1,0,0,0,0,0,0,0,1,140000.0
10.0,12.0,10.0,5.0,5.0,1.0,10,1.0,5,1,1,0,1,0,0,0,0,0,0,1,190000.0
3.0,6.0,3.0,5.0,4.0,1.0,6,0.0,3,0,1,1,0,0,1,0,0,0,0,1,23068.0
20.0,22.0,10.0,4.0,9.0,1.0,3,1.0,5,1,0,0,0,1,0,0,0,0,0,1,118147.0
13.0,17.0,13.0,6.0,5.0,0.0,6,7.0,4,0,1,1,0,0,0,0,0,0,0,0,20426.0
20.0,30.0,20.0,6.0,7.0,1.0,6,0.0,2,0,0,0,0,0,1,0,0,0,0,1,111417.0
6.0,10.0,6.0,3.0,1.0,0.0,0,1.0,7,1,0,0,1,0,0,1,0,1,0,1,38267.0
1.0,2.0,1.0,5.0,5.0,0.0,8,7.0,1,0,0,0,0,0,0,0,0,0,0,1,12000.0
3.0,10.0,10.0,5.0,5.0,1.0,6,1.0,10,1,1,0,1,1,1,0,0,0,0,1,31148.0
14.0,18.0,18.0,4.0,6.0,1.0,6,0.0,8,1,1,0,1,0,1,0,0,1,0,1,120330.0
9.0,15.0,9.0,5.0,5.0,0.0,9,0.0,5,0,1,0,0,0,0,1,1,0,0,1,85350.0
0.0,3.0,15.0,4.0,9.0,1.0,0,10.0,0,0,0,0,0,0,0,0,0,0,0,1,27973.0
5.0,5.0,5.0,3.0,4.0,0.0,6,0.0,5,0,1,1,1,1,0,0,0,0,0,1,37592.0
27.0,29.0,27.0,5.0,9.0,0.0,10,10.0,3,0,1,1,0,0,1,0,0,0,0,1,230000.0
15.0,30.0,15.0,5.0,4.0,1.0,6,5.0,4,0,1,1,0,0,0,1,0,0,1,1,104174.0
3.0,8.0,10.0,6.0,7.0,2.0,5,1.0,3,1,0,0,1,0,0,1,0,0,0,1,300737.0
4.0,11.0,10.0,5.0,7.0,1.0,9,7.0,5,0,1,1,0,0,0,0,0,0,0,1,76433.0
6.0,10.0,6.0,2.0,5.0,2.0,6,0.0,4,0,1,0,0,0,1,0,1,0,0,1,10381.0
17.0,23.0,17.0,6.0,6.0,2.0,6,0.0,6,0,1,1,1,0,1,0,0,0,0,1,98015.0
11.0,11.0,11.0,5.0,2.0,0.0,10,0.0,5,0,1,1,1,0,0,0,0,0,0,1,100000.0
16.0,29.0,16.0,5.0,9.0,2.0,10,1.0,5,1,0,0,1,0,1,1,0,0,0,1,429369.0
5.0,12.0,5.0,5.0,7.0,0.0,10,0.0,5,0,1,1,0,1,0,1,0,0,0,1,95400.0
16.0,18.0,16.0,4.0,9.0,0.0,1,2.0,3,0,1,1,0,0,0,0,0,0,0,1,139993.0
9.0,12.0,9.0,6.0,5.0,0.0,8,0.0,7,1,1,1,1,1,0,0,0,0,0,1,80000.0
3.0,8.0,3.0,6.0,3.0,2.0,7,1.0,4,1,0,1,0,0,0,0,0,0,0,1,30718.0
40.0,43.0,10.0,6.0,4.0,0.0,6,0.0,3,1,1,1,0,0,0,0,0,0,0,0,158402.0
2.0,4.0,10.0,1.0,3.0,1.0,6,2.0,3,0,1,1,0,0,0,0,0,0,0,1,50000.0
7.0,10.0,7.0,7.0,9.0,0.0,10,0.0,3,0,1,1,0,0,1,0,0,0,0,1,101000.0
30.0,40.0,30.0,6.0,2.0,0.0,9,0.0,2,1,0,1,0,0,0,0,0,0,0,1,89108.0
4.0,5.0,4.0,2.0,3.0,0.0,6,2.0,4,1,1,0,1,0,0,0,0,0,0,1,48333.0
5.0,6.0,4.0,3.0,7.0,0.0,0,1.0,4,0,1,1,0,0,1,0,0,0,0,1,22378.0
11.0,17.0,10.0,5.0,5.0,1.0,9,0.0,6,1,1,1,1,0,0,0,0,0,0,1,63694.0
32.0,35.0,33.0,3.0,5.0,1.0,7,10.0,5,1,1,0,1,0,0,0,0,0,0,1,48333.0
3.0,7.0,4.0,3.0,7.0,2.0,1,0.0,6,0,1,0,1,0,1,1,0,0,0,1,36346.0
6.0,9.0,6.0,6.0,8.0,0.0,6,2.0,3,0,1,1,0,0,0,0,0,0,0,1,40336.0
10.0,15.0,10.0,5.0,3.0,2.0,6,1.0,7,0,1,0,0,0,0,0,0,1,1,1,64444.0
15.0,20.0,10.0,6.0,3.0,2.0,6,0.0,6,1,1,1,1,0,0,0,0,0,0,1,74873.0
15.0,18.0,17.0,6.0,5.0,0.0,10,1.0,5,1,1,0,1,1,0,0,0,0,0,1,210000.0
5.0,8.0,5.0,6.0,7.0,1.0,6,0.0,9,1,1,1,1,0,1,0,0,0,0,1,43326.0
1.0,3.0,1.0,5.0,4.0,1.0,6,0.0,4,0,1,0,1,0,0,0,1,0,0,1,48333.0
2.0,3.0,10.0,3.0,4.0,1.0,10,0.0,9,1,1,1,1,0,1,1,0,1,0,1,69000.0
0.0,1.0,10.0,3.0,8.0,0.0,8,8.0,3,1,0,0,1,1,0,0,0,0,0,1,12342.0
3.0,4.0,10.0,6.0,7.0,1.0,6,6.0,2,1,1,0,0,0,0,0,0,0,0,1,66592.0
10.0,12.0,12.0,5.0,4.0,0.0,10,10.0,6,1,1,0,1,0,1,0,0,0,0,1,200800.0
5.0,9.0,10.0,6.0,2.0,1.0,6,0.0,2,0,1,0,0,0,0,0,0,0,0,1,11878.0
20.0,32.0,20.0,7.0,5.0,2.0,10,10.0,3,1,0,0,1,0,0,1,0,0,0,1,115000.0
28.0,40.0,35.0,7.0,4.0,1.0,3,2.0,3,0,1,1,0,0,0,0,0,0,0,0,69814.0
4.0,8.0,10.0,6.0,6.0,1.0,6,0.0,4,1,0,0,1,0,0,0,0,0,0,1,59073.0
3.0,8.0,10.0,6.0,2.0,0.0,1,1.0,7,1,1,0,1,0,0,0,0,1,0,1,72693.0
14.0,21.0,14.0,5.0,2.0,1.0,6,0.0,6,1,1,1,0,0,0,0,0,0,1,0,79279.0
5.0,17.0,10.0,5.0,7.0,1.0,10,0.0,4,0,1,1,0,0,0,0,0,0,0,1,140000.0
9.0,16.0,9.0,5.0,6.0,0.0,4,0.0,2,0,0,0,1,0,1,0,0,0,0,1,16151.0
17.0,21.0,19.0,5.0,2.0,2.0,6,0.0,8,0,1,0,1,1,0,0,1,0,0,1,27226.0
14.0,24.0,14.0,6.0,6.0,0.0,6,8.0,5,1,0,0,0,0,1,1,0,0,0,1,86613.0
34.0,35.0,34.0,5.0,5.0,1.0,3,1.0,2,0,0,0,1,1,0,0,0,0,0,0,64444.0
6.0,6.0,14.0,6.0,6.0,0.0,10,2.0,1,0,1,0,0,0,0,0,0,0,0,1,115500.0
17.0,17.0,17.0,5.0,2.0,1.0,8,1.0,10,1,1,1,0,1,0,1,0,1,0,1,88862.0
5.0,6.0,5.0,5.0,9.0,0.0,10,1.0,20,1,1,1,1,1,1,0,0,1,1,1,80000.0
28.0,35.0,10.0,5.0,6.0,1.0,5,0.0,5,0,1,0,1,0,1,0,0,0,0,1,107406.0
15.0,20.0,15.0,3.0,3.0,0.0,6,0.0,5,1,1,0,1,0,0,0,1,0,0,1,20797.0
7.0,16.0,7.0,6.0,5.0,2.0,0,0.0,10,0,1,0,1,1,0,1,0,0,0,1,52216.0
2.0,10.0,2.0,5.0,7.0,1.0,7,7.0,4,0,0,0,1,0,0,0,0,1,0,1,37592.0
7.0,7.0,10.0,6.0,3.0,1.0,8,2.0,4,0,1,1,0,0,0,0,0,0,0,1,41963.0
5.0,15.0,5.0,6.0,5.0,0.0,6,0.0,7,1,1,1,1,0,0,0,0,0,1,1,85925.0
25.0,29.0,10.0,6.0,5.0,1.0,7,1.0,5,0,0,0,0,1,1,1,0,0,0,1,59073.0
11.0,16.0,11.0,6.0,9.0,1.0,6,1.0,4,1,1,0,0,0,0,0,0,0,0,1,52122.0
2.0,3.0,2.0,1.0,5.0,1.0,6,0.0,1,0,0,0,0,0,1,0,0,0,0,1,49549.0
22.0,28.0,25.0,5.0,7.0,0.0,6,7.0,1,0,0,0,0,0,1,0,0,0,0,1,68444.0
9.0,15.0,9.0,5.0,2.0,1.0,6,10.0,5,0,0,1,0,0,0,0,0,1,1,1,118919.0
10.0,14.0,10.0,6.0,7.0,0.0,8,9.0,3,1,0,0,0,0,0,1,0,0,0,1,50000.0
11.0,15.0,11.0,5.0,4.0,2.0,6,1.0,3,0,1,0,0,0,0,0,1,0,0,1,21619.0
5.0,12.0,12.0,5.0,3.0,1.0,3,10.0,5,0,1,1,1,1,0,0,0,0,0,1,57999.0
10.0,13.0,10.0,7.0,5.0,1.0,3,4.0,3,1,0,0,1,0,0,0,0,0,0,1,94517.0
1.0,10.0,10.0,3.0,4.0,2.0,6,10.0,4,0,1,0,1,0,0,1,0,0,0,1,43020.0
0.0,6.0,1.0,3.0,7.0,1.0,6,0.0,5,0,1,1,1,1,0,0,0,0,0,1,56925.0
6.0,11.0,10.0,6.0,8.0,1.0,3,9.0,4,1,0,0,0,0,0,1,0,0,0,1,105258.0
16.0,16.0,20.0,6.0,9.0,0.0,10,4.0,2,1,0,0,1,0,0,0,0,0,0,1,170000.0
12.0,15.0,10.0,6.0,4.0,2.0,3,10.0,3,0,1,1,0,0,0,0,0,0,0,1,107406.0
11.0,20.0,11.0,5.0,7.0,1.0,1,10.0,2,0,0,0,0,0,1,1,0,0,0,1,94319.0
3.0,8.0,10.0,6.0,2.0,1.0,3,0.0,6,0,1,1,0,0,1,0,0,1,0,1,53703.0
3.0,10.0,3.0,6.0,5.0,0.0,6,2.0,1,0,1,0,0,0,0,0,0,0,0,1,35635.0
10.0,16.0,10.0,6.0,7.0,2.0,9,8.0,3,1,0,0,0,0,1,1,0,0,0,1,70063.0
1.0,5.0,10.0,5.0,2.0,1.0,6,0.0,4,0,1,0,1,0,1,0,0,0,0,1,11129.0
9.0,12.0,10.0,5.0,9.0,1.0,10,10.0,8,1,1,1,1,0,0,0,0,0,1,1,220000.0
18.0,28.0,18.0,6.0,3.0,1.0,10,0.0,2,1,0,0,0,0,0,0,0,0,0,1,260000.0
10.0,10.0,12.0,6.0,4.0,0.0,10,2.0,3,0,1,1,0,0,0,0,0,0,0,1,140000.0
15.0,25.0,27.0,5.0,2.0,0.0,10,0.0,4,0,1,0,1,0,1,0,0,0,0,1,165000.0
44.0,44.0,10.0,5.0,1.0,0.0,6,9.0,5,1,0,0,0,0,0,1,0,0,0,0,15000.0
11.0,25.0,10.0,5.0,4.0,0.0,10,0.0,13,1,1,1,1,1,1,1,0,0,0,0,60000.0
20.0,30.0,20.0,6.0,3.0,2.0,3,10.0,8,1,1,0,1,0,1,0,0,0,0,1,51967.0
2.0,4.0,4.0,2.0,6.0,2.0,6,0.0,6,0,1,0,1,0,1,0,1,0,0,1,21266.0
4.0,10.0,10.0,5.0,3.0,1.0,6,1.0,1,0,0,0,0,0,0,0,0,1,0,1,30267.0
16.0,32.0,10.0,3.0,5.0,1.0,6,0.0,6,0,1,1,1,1,0,0,0,0,0,1,123554.0
9.0,16.0,9.0,6.0,6.0,1.0,6,0.0,6,0,0,0,1,0,1,0,0,0,0,1,69814.0
0.0,2.0,4.0,3.0,4.0,2.0,6,7.0,14,0,1,1,1,1,1,1,1,1,0,1,27854.0
5.0,8.0,10.0,5.0,4.0,2.0,6,9.0,8,1,1,1,0,0,0,1,0,0,1,1,42962.0
1.0,7.0,10.0,5.0,4.0,0.0,8,7.0,1,0,0,0,0,0,0,0,0,0,0,1,12000.0
6.0,13.0,10.0,5.0,6.0,1.0,10,9.0,8,1,0,0,0,0,1,1,0,1,1,1,210000.0
5.0,6.0,10.0,6.0,9.0,1.0,4,5.0,5,1,0,0,1,0,0,0,1,0,0,1,35890.0
12.0,24.0,12.0,6.0,3.0,0.0,3,6.0,6,1,1,0,1,1,0,0,0,0,1,1,102036.0
10.0,10.0,10.0,6.0,5.0,1.0,3,0.0,8,1,1,1,0,0,1,0,0,0,0,1,51426.0
2.0,7.0,2.0,5.0,2.0,2.0,6,0.0,8,1,1,0,1,0,1,0,0,0,0,1,22555.0
2.0,6.0,2.0,5.0,9.0,1.0,10,4.0,4,1,0,0,1,0,0,0,0,0,0,1,112000.0
22.0,28.0,10.0,5.0,1.0,0.0,9,1.0,3,0,0,0,1,0,1,0,0,0,0,0,178343.0
8.0,12.0,8.0,5.0,7.0,1.0,4,1.0,3,0,1,0,1,1,0,0,0,0,0,1,53836.0
6.0,10.0,6.0,6.0,5.0,1.0,7,3.0,2,1,0,0,0,0,0,0,0,0,0,1,80555.0
18.0,18.0,18.0,6.0,7.0,0.0,10,0.0,4,0,0,1,1,0,1,0,0,0,0,1,101000.0
