YearsCodePro_n,YearsCode_n,WorkExp_n,EdLevel_n,OrgSize_n,Remote_n,Country_n,DevType_n,lang_count,lang_Python,lang_JavaScript,lang_TypeScript,lang_SQL,lang_Java,lang_CSharp,lang_CPlusPlus,lang_PHP,lang_Go,lang_Rust,IsFullTime,ConvertedCompYearly
6.0,10.0,6.0,6.0,9.0,1.0,10,1.0,4,1,0,0,1,0,1,0,0,0,0,1,210000.0
11.0,16.0,12.0,5.0,9.0,0.0,6,1.0,3,1,0,0,0,1,0,0,0,0,0,1,96000.0
7.0,11.0,10.0,5.0,4.0,0.0,8,1.0,3,1,0,0,1,0,0,0,0,0,1,1,190000.0
3.0,4.0,5.0,5.0,3.0,1.0,6,1.0,5,0,1,1,1,1,0,0,0,0,0,1,15536.0
20.0,25.0,20.0,6.0,5.0,1.0,8,10.0,5,0,1,0,1,0,0,0,1,0,0,1,40000.0
6.0,18.0,6.0,5.0,3.0,0.0,10,0.0,3,1,0,0,0,0,0,0,0,0,0,1,170000.0
36.0,40.0,40.0,3.0,5.0,1.0,10,1.0,4,0,1,1,1,0,0,0,0,0,0,1,235000.0
21.0,38.0,21.0,6.0,7.0,1.0,9,0.0,9,0,1,1,1,1,1,0,0,0,0,1,129936.0
30.0,25.0,25.0,3.0,4.0,1.0,6,0.0,5,0,0,1,1,0,1,0,0,0,0,1,62000.0
15.0,25.0,15.0,6.0,5.0,0.0,2,1.0,11,0,1,0,1,0,0,0,1,1,1,1,193331.0
6.0,7.0,6.0,5.0,5.0,0.0,5,10.0,5,1,0,0,1,0,0,0,0,1,0,1,56925.0
3.0,4.0,3.0,5.0,2.0,0.0,6,0.0,5,0,1,0,1,0,0,0,0,0,0,1,45111.0
25.0,32.0,10.0,5.0,8.0,2.0,10,1.0,0,0,0,0,0,0,0,0,0,0,0,1,108000.0
15.0,17.0,10.0,6.0,7.0,1.0,4,10.0,3,1,0,0,1,0,0,0,0,0,0,1,47854.0
5.0,6.0,10.0,6.0,6.0,0.0,9,7.0,1,0,0,0,0,0,0,0,0,0,0,1,109554.0
8.0,15.0,6.0,2.0,6.0,1.0,6,0.0,6,1,1,1,0,0,0,0,1,0,0,1,50090.0
12.0,18.0,12.0,5.0,3.0,0.0,6,1.0,5,1,1,0,1,0,1,0,0,0,0,1,25777.0
10.0,12.0,15.0,3.0,4.0,0.0,7,1.0,5,1,1,1,1,0,0,0,0,0,0,1,96666.0
14.0,17.0,20.0,5.0,7.0,0.0,6,6.0,9,1,1,0,1,1,0,0,0,0,1,1,116393.0
3.0,7.0,10.0,5.0,3.0,2.0,6,5.0,6,1,1,0,0,1,0,0,0,1,0,1,23791.0
3.0,7.0,10.0,4.0,4.0,0.0,10,0.0,4,1,0,1,0,0,0,0,0,1,1,1,153000.0
14.0,16.0,17.0,6.0,7.0,2.0,2,1.0,1,0,0,0,0,0,0,0,0,0,0,1,94517.0
11.0,15.0,11.0,6.0,9.0,1.0,10,9.0,6,1,0,0,0,0,0,1,0,0,0,1,380000.0
0.0,7.0,10.0,5.0,4.0,2.0,6,1.0,1,0,0,0,0,1,0,0,0,0,0,0,12889.0
1.0,4.0,1.0,3.0,8.0,1.0,6,1.0,4,0,0,0,1,0,1,0,0,0,0,1,25000.0
5.0,10.0,5.0,6.0,4.0,2.0,6,7.0,4,0,0,1,0,1,0,0,0,0,0,1,103681.0
20.0,39.0,10.0,5.0,7.0,1.0,6,1.0,1,0,0,0,0,0,1,0,0,0,0,1,58113.0
22.0,31.0,10.0,6.0,9.0,1.0,8,6.0,4,1,1,0,0,0,0,1,0,0,0,1,115000.0
22.0,39.0,10.0,6.0,7.0,1.0,3,9.0,5,0,1,0,0,0,0,1,0,0,0,1,118147.0
10.0,20.0,10.0,5.0,7.0,2.0,6,1.0,3,1,1,0,0,0,0,0,0,0,0,1,85886.0
15.0,35.0,10.0,6.0,4.0,1.0,3,1.0,6,1,0,0,1,1,0,0,1,0,0,0,128887.0
4.0,10.0,4.0,5.0,2.0,1.0,3,0.0,9,1,0,1,1,1,0,0,0,0,1,1,59073.0
9.0,9.0,9.0,6.0,5.0,0.0,9,1.0,0,0,0,0,0,0,0,0,0,0,0,1,105732.0
2.0,3.0,10.0,5.0,4.0,0.0,1,8.0,5,1,1,1,1,0,0,0,0,0,0,1,65424.0
5.0,8.0,5.0,5.0,7.0,0.0,6,0.0,3,0,1,1,0,0,0,0,0,0,0,1,10166.0
20.0,33.0,30.0,5.0,5.0,2.0,10,10.0,7,1,1,0,1,1,0,1,0,0,0,1,150000.0
0.0,3.0,1.0,6.0,5.0,1.0,2,4.0,3,1,0,0,1,0,0,0,0,1,0,1,48333.0
24.0,32.0,24.0,6.0,4.0,0.0,10,10.0,10,1,1,1,0,0,1,1,0,0,0,1,300000.0
20.0,20.0,20.0,6.0,7.0,0.0,10,4.0,4,0,0,0,1,0,1,0,0,0,0,1,190000.0
5.0,8.0,8.0,5.0,5.0,0.0,3,0.0,8,1,1,1,1,1,0,0,0,0,0,1,75184.0
10.0,10.0,5.0,7.0,9.0,2.0,10,10.0,4,1,0,0,0,0,0,1,0,0,0,1,90000.0
11.0,11.0,12.0,5.0,4.0,0.0,4,1.0,4,0,1,0,1,0,0,0,1,0,0,1,16749.0
20.0,25.0,23.0,6.0,9.0,0.0,10,0.0,2,1,0,0,0,0,0,0,0,0,0,1,345000.0
7.0,9.0,7.0,7.0,4.0,2.0,6,0.0,11,1,1,1,1,1,1,0,1,1,0,1,39206.0
31.0,37.0,10.0,7.0,8.0,1.0,7,10.0,6,0,0,0,1,0,0,1,0,0,0,1,53703.0
4.0,4.0,5.0,2.0,9.0,1.0,5,10.0,6,1,0,0,1,0,0,0,0,0,0,1,48333.0
6.0,10.0,10.0,6.0,1.0,0.0,5,0.0,3,0,1,0,0,0,0,0,0,0,0,0,120000.0
30.0,32.0,32.0,6.0,8.0,0.0,0,1.0,6,0,1,0,1,0,1,0,0,0,0,1,55946.0
1.0,4.0,10.0,7.0,6.0,2.0,6,8.0,1,0,0,0,0,0,1,0,0,0,0,1,10196.0
15.0,20.0,10.0,6.0,8.0,1.0,6,1.0,3,0,0,1,0,1,0,0,0,0,0,1,84851.0
5.0,7.0,10.0,6.0,5.0,1.0,4,4.0,6,1,0,0,1,0,0,0,0,0,0,1,29909.0
16.0,20.0,10.0,4.0,4.0,1.0,1,0.0,4,0,1,0,1,0,0,0,1,0,0,1,83597.0
22.0,30.0,10.0,6.0,5.0,0.0,10,8.0,12,1,1,1,1,1,0,0,0,1,1,1,243500.0
9.0,20.0,9.0,7.0,5.0,1.0,6,0.0,7,1,0,0,1,0,0,1,0,0,0,1,52652.0
27.0,32.0,27.0,7.0,4.0,2.0,6,8.0,2,1,0,0,0,0,0,0,0,0,0,1,29132.0
9.0,10.0,9.0,4.0,7.0,0.0,6,0.0,6,0,1,1,1,1,0,0,0,0,0,1,38666.0
15.0,23.0,20.0,7.0,5.0,2.0,0,10.0,5,0,0,0,1,1,0,1,0,0,0,1,44757.0
28.0,30.0,30.0,3.0,4.0,0.0,6,10.0,11,1,0,0,1,1,0,0,1,1,0,1,65907.0
2.0,5.0,2.0,5.0,9.0,1.0,4,4.0,7,1,1,0,1,1,0,0,0,1,0,1,13160.0
6.0,13.0,10.0,6.0,9.0,1.0,10,10.0,7,1,0,0,0,0,0,1,0,0,1,0,50000.0
8.0,10.0,8.0,5.0,5.0,0.0,10,0.0,3,0,1,1,0,0,0,0,0,0,0,1,170000.0
23.0,27.0,10.0,5.0,1.0,0.0,9,7.0,1,0,0,0,0,0,0,0,0,0,0,0,140127.0
12.0,18.0,12.0,5.0,7.0,0.0,10,7.0,5,0,1,1,0,1,0,0,0,0,0,1,196000.0
34.0,43.0,34.0,5.0,9.0,1.0,9,0.0,10,1,1,1,1,1,0,1,0,0,0,1,286623.0
15.0,18.0,15.0,6.0,9.0,1.0,2,4.0,2,1,0,0,1,0,0,0,0,0,0,1,96666.0
18.0,18.0,10.0,5.0,9.0,0.0,10,3.0,4,1,0,0,1,0,0,0,0,0,0,1,200000.0
3.0,5.0,10.0,5.0,9.0,2.0,10,9.0,1,0,0,0,0,0,0,0,0,0,0,1,120000.0
6.0,10.0,6.0,6.0,2.0,1.0,6,0.0,8,1,1,1,1,1,0,0,0,0,0,1,80555.0
6.0,11.0,10.0,5.0,9.0,0.0,10,4.0,13,1,1,1,1,1,0,1,0,0,1,1,148000.0
4.0,7.0,5.0,5.0,6.0,2.0,7,6.0,5,0,1,1,1,1,0,0,0,0,0,1,31148.0
5.0,18.0,10.0,6.0,9.0,1.0,3,10.0,3,0,1,1,0,0,0,0,0,0,0,1,85925.0
3.0,10.0,3.0,5.0,5.0,0.0,6,2.0,7,1,1,1,1,0,0,0,0,0,0,1,35635.0
1.0,2.0,1.0,5.0,5.0,0.0,7,2.0,3,0,1,1,0,0,0,0,0,0,0,1,29537.0
10.0,13.0,10.0,3.0,5.0,1.0,1,0.0,8,0,1,1,1,1,1,0,0,0,0,1,72693.0
29.0,43.0,30.0,3.0,7.0,1.0,10,10.0,6,0,1,0,1,0,1,0,0,0,0,1,75000.0
11.0,16.0,10.0,5.0,9.0,0.0,10,7.0,1,0,0,0,0,0,0,1,0,0,0,1,275000.0
9.0,15.0,10.0,6.0,4.0,2.0,4,1.0,4,0,1,0,1,0,0,0,1,1,0,1,11963.0
6.0,11.0,10.0,5.0,4.0,1.0,6,1.0,3,0,0,0,1,0,0,0,0,0,0,0,84138.0
20.0,25.0,20.0,5.0,4.0,0.0,10,0.0,4,0,1,1,0,0,1,0,0,0,0,1,200000.0
10.0,15.0,11.0,7.0,6.0,0.0,3,8.0,4,1,0,0,1,1,0,1,0,0,0,1,88073.0
0.0,4.0,1.0,5.0,4.0,1.0,4,1.0,4,0,1,0,0,0,0,1,0,0,0,1,15553.0
8.0,10.0,8.0,5.0,3.0,0.0,6,6.0,2,1,0,0,1,0,0,0,0,0,0,1,54000.0
11.0,14.0,10.0,6.0,7.0,1.0,5,0.0,1,0,0,0,0,0,0,0,0,0,0,1,150369.0
8.0,16.0,10.0,6.0,4.0,1.0,6,9.0,13,1,1,0,0,0,0,1,0,0,1,1,39594.0
17.0,22.0,17.0,3.0,5.0,1.0,7,7.0,2,0,0,0,0,0,0,0,0,0,0,1,38666.0
18.0,20.0,10.0,6.0,9.0,2.0,3,9.0,4,1,0,0,0,0,0,0,0,0,0,1,150369.0
8.0,9.0,8.0,3.0,5.0,1.0,10,1.0,5,0,0,1,1,1,0,0,1,0,0,1,126000.0
2.0,3.0,14.0,3.0,4.0,0.0,6,0.0,7,1,1,0,1,0,0,0,0,0,0,0,80000.0
5.0,10.0,10.0,5.0,6.0,0.0,8,7.0,3,0,0,0,0,0,1,0,0,0,0,1,60000.0
17.0,23.0,10.0,5.0,9.0,0.0,10,2.0,6,0,0,1,0,1,1,0,0,0,1,1,500000.0
6.0,10.0,6.0,5.0,4.0,0.0,6,7.0,5,0,0,0,1,1,0,1,0,0,0,0,77332.0
5.0,7.0,5.0,6.0,5.0,1.0,4,1.0,8,1,1,1,1,1,0,0,1,0,0,1,21534.0
8.0,10.0,8.0,3.0,2.0,1.0,7,0.0,5,0,1,1,0,0,0,0,1,0,0,1,32222.0
16.0,24.0,16.0,5.0,2.0,0.0,6,0.0,6,0,1,0,1,0,1,0,0,0,0,0,59515.0
7.0,9.0,7.0,6.0,5.0,0.0,8,1.0,4,0,1,1,0,0,0,0,0,0,1,1,54000.0
8.0,12.0,10.0,6.0,5.0,0.0,8,10.0,1,0,0,0,0,0,0,0,0,1,0,1,35545.0
20.0,30.0,21.0,3.0,9.0,0.0,10,10.0,8,0,1,0,1,0,0,0,0,0,1,1,316800.0
4.0,9.0,10.0,6.0,4.0,1.0,2,0.0,7,1,1,1,1,0,0,0,1,0,0,1,60147.0
5.0,7.0,5.0,3.0,8.0,1.0,6,1.0,3,1,0,0,1,0,0,0,0,0,0,1,40336.0
15.0,18.0,10.0,5.0,4.0,2.0,0,6.0,7,1,1,0,1,0,1,0,0,0,1,1,130000.0
18.0,20.0,18.0,5.0,5.0,0.0,6,0.0,6,1,1,1,0,1,0,0,1,0,0,1,90000.0
21.0,28.0,21.0,3.0,4.0,0.0,6,1.0,3,0,0,0,0,0,1,0,0,1,0,1,33613.0
17.0,24.0,10.0,6.0,1.0,0.0,6,0.0,4,0,1,1,0,0,0,0,0,0,0,0,21481.0
7.0,14.0,7.0,5.0,9.0,1.0,4,10.0,13,1,1,0,1,1,1,1,1,1,0,1,22731.0
7.0,11.0,7.0,5.0,5.0,0.0,6,10.0,8,1,1,1,1,0,0,0,0,1,0,1,61958.0
15.0,16.0,10.0,6.0,4.0,0.0,10,0.0,6,0,1,1,1,0,1,1,0,0,0,1,135000.0
9.0,15.0,7.0,5.0,2.0,0.0,6,7.0,3,0,1,1,0,0,0,0,0,0,0,1,36179.0
8.0,13.0,10.0,5.0,7.0,2.0,10,10.0,15,1,1,1,1,1,1,1,0,0,0,1,32000.0
10.0,15.0,10.0,6.0,1.0,1.0,6,0.0,10,1,1,1,1,1,1,0,0,0,0,0,27525.0
4.0,9.0,14.0,5.0,5.0,1.0,9,1.0,4,0,0,0,1,1,0,0,0,0,0,1,113375.0
13.0,18.0,5.0,5.0,9.0,0.0,6,0.0,5,0,1,1,1,0,1,0,0,0,0,1,49354.0
1.0,3.0,10.0,3.0,5.0,1.0,8,2.0,7,1,1,1,0,0,1,1,0,0,0,1,12000.0
6.0,10.0,8.0,6.0,3.0,1.0,3,2.0,4,0,1,1,0,1,0,0,0,0,0,1,64444.0
3.0,4.0,2.0,5.0,7.0,1.0,6,1.0,7,1,1,1,0,1,0,0,0,1,0,1,14168.0
1.0,5.0,10.0,5.0,3.0,1.0,10,0.0,6,0,1,1,0,1,0,1,0,1,0,0,52000.0
8.0,16.0,8.0,3.0,4.0,1.0,3,0.0,3,1,1,0,0,0,0,0,0,0,0,1,47688.0
30.0,35.0,10.0,6.0,4.0,1.0,8,10.0,6,1,1,0,1,1,0,0,1,0,0,1,66647.0
3.0,4.0,10.0,5.0,2.0,1.0,8,0.0,6,1,1,1,1,0,0,0,0,0,0,1,29621.0
5.0,10.0,10.0,5.0,7.0,1.0,1,0.0,6,0,1,1,1,1,0,0,0,1,0,1,75601.0
25.0,29.0,25.0,5.0,4.0,0.0,10,1.0,6,1,0,0,0,1,1,0,0,1,1,1,180000.0
29.0,32.0,29.0,5.0,7.0,1.0,1,2.0,3,0,1,1,0,1,0,0,0,0,0,1,98135.0
4.0,8.0,10.0,5.0,1.0,0.0,6,1.0,5,0,1,0,1,0,0,0,0,1,1,0,18544.0
16.0,20.0,20.0,6.0,5.0,0.0,10,0.0,7,1,1,1,1,0,1,0,0,0,0,1,186000.0
7.0,13.0,8.0,5.0,3.0,0.0,6,0.0,3,0,1,1,0,0,0,0,0,0,0,1,62392.0
11.0,20.0,10.0,5.0,5.0,1.0,10,0.0,4,0,1,0,0,0,0,0,1,0,0,1,89000.0
9.0,14.0,10.0,6.0,9.0,1.0,9,0.0,6,1,1,1,1,1,0,0,0,0,1,1,229298.0
12.0,14.0,14.0,1.0,5.0,0.0,6,10.0,2,1,0,0,0,1,0,0,0,0,0,1,94037.0
3.0,4.0,3.0,2.0,2.0,0.0,6,0.0,5,0,1,1,1,0,1,0,0,0,0,1,42095.0
10.0,14.0,10.0,3.0,4.0,0.0,9,0.0,3,0,1,1,0,0,0,0,0,0,0,1,101910.0
10.0,40.0,35.0,7.0,4.0,2.0,6,0.0,3,0,1,0,0,0,0,0,0,0,0,1,73748.0
36.0,40.0,36.0,3.0,4.0,0.0,10,10.0,2,1,1,0,0,0,0,0,0,0,0,1,275000.0
3.0,8.0,3.0,5.0,4.0,1.0,6,0.0,4,0,1,1,0,0,1,0,0,0,0,1,48314.0
2.0,3.0,10.0,3.0,2.0,0.0,8,0.0,2,0,1,0,0,1,0,0,0,0,0,1,20407.0
9.0,10.0,9.0,3.0,4.0,0.0,6,10.0,6,0,1,1,1,0,0,0,0,0,0,1,154782.0
20.0,25.0,25.0,6.0,4.0,1.0,10,6.0,2,0,0,1,1,0,0,0,0,0,0,1,200000.0
34.0,39.0,30.0,6.0,7.0,0.0,10,10.0,6,0,0,0,1,1,0,0,0,0,0,1,150000.0
0.0,17.0,10.0,3.0,1.0,0.0,0,10.0,2,1,0,0,0,0,0,0,0,0,0,0,23274.0
9.0,14.0,10.0,3.0,6.0,1.0,6,0.0,9,1,1,1,1,1,0,0,1,0,0,1,222834.0
10.0,18.0,10.0,6.0,4.0,2.0,6,9.0,6,1,1,0,1,0,0,1,0,0,0,1,59073.0
4.0,7.0,4.0,6.0,5.0,0.0,10,1.0,1,0,0,0,0,0,0,0,0,0,1,1,180000.0
23.0,35.0,10.0,6.0,2.0,0.0,6,0.0,6,0,1,0,1,0,1,0,0,0,0,0,77332.0
2.0,15.0,2.0,5.0,9.0,1.0,10,4.0,7,1,1,1,1,1,0,0,0,0,0,1,83500.0
4.0,5.0,4.0,5.0,5.0,0.0,6,2.0,2,0,1,0,0,0,0,0,0,0,0,1,37592.0
22.0,22.0,10.0,5.0,9.0,0.0,10,2.0,6,0,1,1,1,0,0,0,1,0,0,1,166000.0
5.0,8.0,10.0,5.0,4.0,1.0,6,0.0,4,0,1,1,0,1,0,0,0,0,0,1,63300.0
19.0,34.0,10.0,3.0,9.0,1.0,7,8.0,5,0,0,0,1,0,0,0,1,0,0,1,36518.0
10.0,13.0,10.0,5.0,7.0,0.0,6,0.0,6,0,1,1,1,0,0,0,0,0,0,1,37736.0
4.0,4.0,4.0,5.0,5.0,0.0,10,0.0,5,0,1,0,1,0,1,1,0,0,0,1,80000.0
34.0,37.0,34.0,5.0,9.0,0.0,10,0.0,3,0,0,0,1,1,0,0,0,0,0,1,100000.0
3.0,5.0,16.0,2.0,3.0,0.0,3,7.0,4,0,1,1,1,0,0,0,0,0,0,1,48333.0
11.0,15.0,10.0,2.0,4.0,0.0,10,9.0,12,1,1,1,1,1,0,1,0,1,1,1,250000.0
2.0,5.0,2.0,5.0,7.0,2.0,4,10.0,5,1,1,0,1,0,0,0,0,1,0,1,14356.0
18.0,29.0,18.0,6.0,8.0,0.0,9,0.0,4,0,1,1,0,1,0,0,0,0,0,1,292992.0
3.0,13.0,3.0,6.0,5.0,1.0,6,1.0,5,1,0,0,1,0,1,0,0,0,0,1,32222.0
20.0,20.0,10.0,7.0,4.0,2.0,2,10.0,6,0,1,0,1,0,0,0,1,0,0,1,161109.0
3.0,8.0,10.0,6.0,7.0,1.0,0,8.0,9,1,1,1,1,1,1,0,0,0,0,1,26071.0
2.0,7.0,2.0,5.0,4.0,1.0,6,8.0,5,0,1,0,1,0,1,1,0,0,0,1,42748.0
21.0,26.0,21.0,6.0,5.0,1.0,7,0.0,2,0,1,1,0,0,0,0,0,0,0,1,62296.0
15.0,18.0,18.0,2.0,5.0,1.0,3,0.0,7,0,1,1,0,0,0,0,1,0,1,1,70888.0
2.0,5.0,10.0,7.0,4.0,1.0,6,10.0,1,1,0,0,0,0,0,0,0,0,0,1,68883.0
20.0,23.0,19.0,5.0,9.0,1.0,10,1.0,6,1,1,0,1,1,0,0,0,0,0,1,200000.0
2.0,8.0,2.0,7.0,4.0,2.0,6,9.0,5,1,0,0,0,0,0,0,0,0,1,1,49165.0
13.0,21.0,13.0,4.0,9.0,1.0,6,2.0,7,0,1,1,0,0,0,0,1,1,0,1,73664.0
22.0,24.0,10.0,6.0,5.0,1.0,6,0.0,1,0,0,0,0,0,0,0,1,0,0,1,32715.0
10.0,35.0,10.0,3.0,3.0,0.0,6,8.0,8,0,1,1,1,1,0,1,0,0,0,1,56201.0
3.0,12.0,2.0,6.0,6.0,1.0,3,10.0,9,1,1,0,1,0,0,1,0,1,0,1,66592.0
10.0,19.0,10.0,3.0,3.0,0.0,6,0.0,6,0,1,1,1,0,1,0,0,0,0,1,38645.0
8.0,17.0,8.0,4.0,2.0,0.0,10,4.0,3,1,0,0,1,0,0,0,0,0,0,1,157500.0
10.0,14.0,10.0,5.0,2.0,1.0,6,10.0,5,1,0,1,0,0,0,0,0,1,0,1,85925.0
13.0,16.0,13.0,4.0,5.0,0.0,7,1.0,4,0,0,0,1,1,0,0,0,0,0,0,100962.0
11.0,14.0,11.0,6.0,8.0,1.0,6,0.0,5,0,1,1,1,0,0,0,0,0,0,1,148479.0
3.0,7.0,10.0,5.0,4.0,1.0,10,0.0,5,0,1,0,1,0,1,0,0,0,0,1,86000.0
18.0,22.0,18.0,5.0,2.0,0.0,4,0.0,2,0,0,0,0,0,0,0,0,0,0,0,21534.0
30.0,40.0,30.0,5.0,7.0,0.0,10,0.0,3,0,1,0,1,0,1,0,0,0,0,1,225000.0
0.0,3.0,1.0,6.0,4.0,2.0,2,2.0,6,0,1,1,1,0,0,0,1,0,0,0,22555.0
3.0,3.0,10.0,5.0,2.0,0.0,6,10.0,6,0,1,1,1,0,0,0,0,0,1,1,88699.0
17.0,24.0,20.0,6.0,7.0,2.0,6,10.0,9,1,0,0,0,0,0,1,0,1,1,1,275950.0
14.0,20.0,15.0,5.0,7.0,1.0,6,1.0,5,1,0,0,1,1,0,0,0,0,0,1,107406.0
4.0,11.0,4.0,6.0,4.0,0.0,6,1.0,3,1,0,0,1,0,0,0,0,0,0,1,23629.0
10.0,18.0,13.0,6.0,5.0,1.0,10,1.0,8,0,1,1,1,1,0,0,0,0,0,1,222000.0
25.0,30.0,25.0,5.0,5.0,0.0,3,10.0,2,0,0,0,0,1,1,0,0,0,0,1,113851.0
10.0,15.0,10.0,4.0,4.0,0.0,10,0.0,6,0,1,1,1,0,0,0,1,0,0,1,103000.0
3.0,10.0,3.0,5.0,9.0,2.0,10,9.0,8,1,0,1,0,0,0,0,1,0,1,1,95000.0
1.0,20.0,2.0,3.0,4.0,0.0,10,0.0,5,1,1,1,1,0,0,0,0,0,0,1,79000.0
23.0,25.0,10.0,5.0,7.0,0.0,10,2.0,3,0,1,0,0,0,1,0,0,0,0,1,110000.0
3.0,7.0,6.0,3.0,5.0,0.0,9,0.0,6,1,1,1,1,0,0,0,1,0,0,1,89172.0
6.0,8.0,10.0,3.0,4.0,0.0,7,1.0,3,0,0,1,0,0,0,0,0,0,0,1,161109.0
5.0,11.0,5.0,6.0,5.0,0.0,8,1.0,4,0,1,0,1,0,0,0,1,0,0,1,19253.0
3.0,5.0,10.0,3.0,2.0,2.0,10,0.0,5,0,1,1,1,0,1,0,0,0,0,1,100000.0
2.0,5.0,5.0,5.0,6.0,2.0,3,0.0,9,0,1,1,1,1,0,0,1,0,0,1,64444.0
3.0,16.0,10.0,7.0,5.0,1.0,10,10.0,7,1,0,0,0,0,0,1,0,0,0,1,140000.0
10.0,20.0,10.0,5.0,6.0,2.0,10,4.0,6,1,0,0,1,0,0,0,0,0,1,1,130000.0
2.0,4.0,2.0,3.0,2.0,1.0,6,0.0,11,1,1,1,1,0,0,0,0,1,1,1,23200.0
4.0,7.0,4.0,5.0,5.0,2.0,6,0.0,8,0,1,1,1,1,1,1,1,0,0,1,11047.0
5.0,35.0,5.0,2.0,8.0,1.0,3,9.0,1,0,0,0,0,0,0,1,0,0,0,1,69814.0
0.0,5.0,10.0,5.0,3.0,1.0,3,2.0,4,0,1,1,0,0,1,0,0,0,0,1,38666.0
10.0,25.0,10.0,5.0,4.0,1.0,3,8.0,6,0,1,1,0,1,0,1,0,0,0,0,69814.0
27.0,40.0,27.0,5.0,6.0,0.0,10,0.0,5,1,1,1,0,1,0,0,1,0,0,1,190000.0
12.0,15.0,12.0,6.0,7.0,2.0,10,10.0,6,1,1,0,1,0,1,0,0,0,0,1,115000.0
9.0,13.0,9.0,6.0,4.0,0.0,6,0.0,5,0,1,1,1,0,1,0,0,0,0,1,65578.0
6.0,7.0,6.0,5.0,5.0,0.0,10,0.0,9,1,1,1,1,1,0,0,0,0,0,1,124000.0
3.0,0.0,3.0,3.0,9.0,2.0,10,0.0,3,0,0,1,0,0,1,0,0,0,0,1,72000.0
2.0,4.0,10.0,5.0,7.0,2.0,4,0.0,6,0,1,0,1,0,1,1,0,0,0,1,15553.0
3.0,5.0,13.0,6.0,6.0,0.0,6,5.0,4,1,0,0,1,0,0,0,0,0,0,1,30000.0
16.0,18.0,10.0,2.0,3.0,0.0,6,0.0,5,1,1,0,1,0,0,0,1,0,0,1,16143.0
20.0,22.0,10.0,5.0,5.0,0.0,10,1.0,8,1,0,0,1,0,0,0,0,0,0,1,275000.0
2.0,7.0,7.0,6.0,4.0,1.0,3,10.0,6,1,1,0,0,1,0,1,0,0,1,0,10741.0
4.0,9.0,3.0,5.0,3.0,0.0,8,7.0,1,0,0,0,0,0,0,0,0,0,0,1,11552.0
3.0,5.0,10.0,6.0,9.0,1.0,10,0.0,6,1,1,0,1,1,0,0,0,0,0,1,130000.0
0.0,6.0,0.0,5.0,9.0,0.0,10,0.0,7,0,1,0,1,0,1,0,0,0,0,1,54000.0
8.0,9.0,10.0,5.0,6.0,1.0,3,7.0,1,0,0,0,0,0,0,0,0,0,0,1,104399.0
6.0,11.0,10.0,7.0,4.0,2.0,6,10.0,12,1,1,1,1,1,0,0,0,1,1,0,21510.0
5.0,15.0,8.0,3.0,5.0,1.0,6,0.0,6,0,1,1,0,1,0,0,0,0,0,1,150413.0
7.0,20.0,11.0,5.0,7.0,0.0,10,0.0,6,0,1,1,1,0,1,0,0,0,0,1,180000.0
5.0,9.0,10.0,5.0,4.0,2.0,6,0.0,7,1,1,1,1,0,0,1,0,1,0,1,37061.0
18.0,28.0,18.0,6.0,8.0,1.0,6,4.0,6,1,0,0,1,1,0,0,0,0,0,1,122611.0
3.0,7.0,3.0,3.0,5.0,1.0,3,1.0,3,0,1,0,1,0,0,0,1,0,0,1,51555.0
2.0,5.0,10.0,3.0,9.0,1.0,9,1.0,6,0,1,1,0,1,1,0,0,0,0,1,48407.0
4.0,5.0,10.0,6.0,2.0,0.0,6,3.0,1,0,0,0,0,0,0,0,0,0,0,0,21663.0
6.0,10.0,6.0,6.0,4.0,1.0,2,4.0,3,1,0,0,1,0,0,0,0,0,0,1,73036.0
4.0,9.0,4.0,6.0,5.0,0.0,6,1.0,1,0,0,0,0,0,0,0,0,0,0,1,33680.0
22.0,27.0,10.0,6.0,7.0,1.0,2,0.0,4,0,0,1,1,1,0,0,0,0,0,1,64444.0
2.0,6.0,2.0,5.0,9.0,1.0,3,0.0,3,0,1,1,0,0,0,0,0,0,0,1,57999.0
0.0,6.0,1.0,5.0,9.0,1.0,10,0.0,2,1,0,0,0,0,0,0,0,0,0,1,85000.0
7.0,14.0,10.0,3.0,3.0,1.0,6,2.0,7,0,1,1,0,0,1,0,0,0,1,1,76033.0
11.0,13.0,14.0,5.0,5.0,1.0,10,10.0,5,1,0,0,1,0,1,0,0,0,0,1,300000.0
6.0,7.0,6.0,6.0,7.0,0.0,6,0.0,5,0,1,1,1,0,0,0,1,0,0,1,50000.0
3.0,8.0,5.0,5.0,4.0,0.0,8,2.0,2,0,1,0,0,0,0,0,0,0,0,1,42962.0
5.0,7.0,6.0,2.0,2.0,1.0,6,10.0,8,0,1,1,1,1,0,0,0,1,0,0,50037.0
5.0,10.0,10.0,6.0,1.0,1.0,6,0.0,5,0,1,0,1,0,0,0,1,0,0,0,126120.0
10.0,14.0,10.0,6.0,6.0,0.0,10,10.0,3,0,0,0,0,0,0,1,0,0,0,1,211000.0
6.0,11.0,6.0,5.0,5.0,1.0,6,0.0,9,1,1,1,1,0,1,0,0,0,1,1,65665.0
19.0,24.0,19.0,6.0,4.0,1.0,8,1.0,1,0,0,0,0,1,0,0,0,0,0,1,78988.0
10.0,10.0,10.0,4.0,5.0,1.0,6,10.0,6,0,1,1,1,0,0,0,0,0,0,0,10794.0
8.0,9.0,8.0,5.0,5.0,2.0,10,8.0,7,1,1,1,1,1,0,0,0,1,0,1,169000.0
9.0,13.0,9.0,5.0,4.0,1.0,10,1.0,4,1,0,0,0,1,0,0,0,0,0,1,123000.0
0.0,14.0,6.0,7.0,2.0,2.0,7,10.0,7,0,1,0,0,0,0,1,0,0,0,1,30074.0
1.0,25.0,1.0,5.0,9.0,1.0,10,0.0,4,0,1,0,0,0,0,0,0,0,1,1,85000.0
16.0,20.0,18.0,6.0,9.0,2.0,4,9.0,4,1,0,0,0,1,0,1,0,0,0,1,52639.0
5.0,15.0,5.0,5.0,4.0,1.0,6,4.0,5,1,0,0,1,0,0,1,0,0,0,1,13445.0
5.0,24.0,4.0,2.0,4.0,2.0,6,7.0,2,0,0,0,0,0,0,0,0,1,0,1,77328.0
5.0,10.0,10.0,6.0,1.0,0.0,6,4.0,3,1,0,0,1,1,0,0,0,0,0,0,107406.0
17.0,18.0,18.0,6.0,8.0,0.0,6,6.0,9,1,0,0,1,1,0,0,0,1,0,1,404763.0
4.0,16.0,4.0,3.0,5.0,2.0,0,0.0,12,0,1,1,1,1,1,0,1,1,1,1,10070.0
12.0,21.0,10.0,5.0,4.0,1.0,2,0.0,1,0,0,0,0,0,0,0,0,0,0,1,90221.0
13.0,17.0,13.0,5.0,5.0,0.0,7,1.0,9,1,1,0,1,1,0,0,0,1,0,1,93443.0
7.0,20.0,7.0,5.0,3.0,1.0,5,0.0,5,0,1,1,1,0,0,0,1,0,0,1,56195.0
17.0,21.0,17.0,6.0,6.0,1.0,6,0.0,5,0,1,0,1,0,1,0,0,0,0,1,100275.0
7.0,9.0,9.0,5.0,9.0,1.0,10,0.0,7,0,0,1,1,0,1,0,0,0,1,1,150000.0
4.0,6.0,25.0,6.0,8.0,1.0,1,1.0,4,0,1,1,0,0,0,0,0,1,0,1,87231.0
13.0,15.0,13.0,5.0,4.0,1.0,6,6.0,11,0,1,1,0,1,0,0,0,1,1,1,63710.0
8.0,12.0,10.0,6.0,2.0,0.0,6,0.0,4,1,1,1,0,0,0,0,0,0,0,1,125000.0
25.0,39.0,25.0,1.0,9.0,0.0,6,0.0,3,0,1,1,0,1,0,0,0,0,0,1,201397.0
1.0,10.0,1.0,5.0,5.0,2.0,1,0.0,5,0,1,0,1,0,1,0,1,0,0,1,51612.0
5.0,12.0,10.0,6.0,8.0,1.0,3,0.0,3,0,0,1,0,1,0,0,0,0,0,1,86999.0
20.0,24.0,20.0,5.0,4.0,2.0,6,0.0,6,1,1,0,1,1,1,0,0,0,0,1,42962.0
40.0,40.0,10.0,6.0,3.0,0.0,10,0.0,6,1,1,0,0,0,0,1,0,0,0,1,140000.0
19.0,22.0,15.0,6.0,6.0,2.0,1,5.0,1,1,0,0,0,0,0,0,0,0,0,1,94501.0
9.0,13.0,9.0,5.0,5.0,0.0,6,3.0,2,1,0,0,1,0,0,0,0,0,0,1,78000.0
10.0,12.0,11.0,5.0,3.0,0.0,0,0.0,11,1,1,1,0,0,1,1,0,0,0,1,17903.0
11.0,16.0,11.0,5.0,4.0,1.0,6,2.0,3,0,1,1,0,0,0,0,0,0,0,1,70113.0
20.0,24.0,10.0,6.0,8.0,1.0,8,6.0,3,0,1,1,0,0,0,0,0,1,0,1,64178.0
17.0,24.0,10.0,5.0,1.0,0.0,10,9.0,8,1,1,1,1,0,1,0,0,0,0,0,160000.0
14.0,17.0,14.0,5.0,4.0,1.0,6,5.0,6,1,1,0,1,1,0,0,0,0,0,1,96666.0
27.0,40.0,27.0,5.0,2.0,2.0,6,2.0,4,0,1,1,0,0,1,0,0,0,0,1,102950.0
20.0,20.0,23.0,2.0,6.0,1.0,3,10.0,7,1,1,0,1,0,1,0,0,0,0,0,53703.0
12.0,12.0,12.0,3.0,5.0,0.0,9,10.0,6,0,1,1,1,0,1,0,0,0,0,1,114649.0
18.0,19.0,19.0,5.0,4.0,0.0,0,0.0,4,1,1,0,1,0,0,0,0,0,0,1,186487.0
17.0,25.0,17.0,6.0,6.0,1.0,5,1.0,5,0,1,1,0,1,0,0,0,0,1,1,75345.0
5.0,18.0,5.0,7.0,7.0,1.0,10,9.0,4,1,0,0,0,0,0,1,0,0,0,1,350000.0
8.0,13.0,8.0,6.0,4.0,0.0,6,0.0,1,0,0,0,0,0,0,0,0,0,0,1,133184.0
8.0,13.0,8.0,6.0,5.0,0.0,2,7.0,10,0,1,1,0,1,1,1,0,0,0,1,77332.0
4.0,8.0,4.0,6.0,4.0,2.0,6,10.0,5,1,0,0,0,0,0,1,0,0,1,1,76206.0
3.0,4.0,10.0,5.0,4.0,1.0,3,2.0,3,0,1,1,0,0,0,0,0,0,0,1,57999.0
26.0,30.0,26.0,6.0,2.0,1.0,4,0.0,4,0,0,1,1,0,1,0,0,0,0,0,21534.0
6.0,8.0,6.0,6.0,5.0,0.0,8,1.0,3,1,0,0,1,1,0,0,0,0,0,1,61611.0
2.0,6.0,10.0,6.0,2.0,1.0,5,10.0,3,1,0,0,1,0,0,0,0,0,0,0,75184.0
2.0,5.0,3.0,5.0,4.0,1.0,6,0.0,5,0,0,1,1,0,0,0,0,0,1,1,53703.0
15.0,20.0,15.0,4.0,4.0,0.0,3,8.0,2,0,0,0,1,1,0,0,0,0,0,1,72499.0
17.0,20.0,20.0,6.0,5.0,2.0,4,10.0,7,0,1,0,1,0,0,1,1,0,0,1,14356.0
1.0,5.0,1.0,5.0,3.0,2.0,6,9.0,9,0,1,0,1,0,1,1,1,0,0,1,40961.0
1.0,8.0,1.0,6.0,9.0,2.0,2,10.0,9,1,0,0,1,1,0,1,0,0,0,1,53669.0
5.0,10.0,5.0,6.0,4.0,1.0,8,7.0,3,0,1,1,0,0,0,0,0,0,0,1,31595.0
6.0,22.0,6.0,6.0,9.0,1.0,3,10.0,2,1,0,0,0,0,0,0,0,0,0,1,80555.0
10.0,15.0,13.0,5.0,3.0,0.0,10,0.0,7,0,1,0,1,0,1,0,0,0,0,1,160000.0
4.0,15.0,5.0,6.0,9.0,2.0,9,2.0,12,1,1,1,1,1,1,1,1,0,0,1,76433.0
7.0,15.0,10.0,6.0,4.0,1.0,6,10.0,7,0,0,0,1,1,0,0,0,1,0,1,85925.0
5.0,6.0,25.0,5.0,4.0,0.0,9,0.0,4,0,1,1,1,0,1,0,0,0,0,1,63694.0
3.0,9.0,3.0,5.0,5.0,1.0,10,0.0,7,1,1,1,1,0,0,0,0,0,0,1,82000.0
8.0,9.0,10.0,5.0,4.0,1.0,6,0.0,5,0,1,1,1,0,0,0,1,0,0,1,40682.0
5.0,10.0,5.0,5.0,9.0,0.0,10,1.0,5,1,0,0,0,0,0,0,0,1,1,1,150000.0
16.0,22.0,16.0,6.0,7.0,1.0,6,0.0,3,0,0,1,0,0,1,0,0,0,0,1,110000.0
0.0,6.0,10.0,6.0,5.0,1.0,2,0.0,1,0,0,0,0,1,0,0,0,0,0,1,36518.0
4.0,10.0,4.0,4.0,4.0,0.0,1,10.0,6,1,0,0,1,0,0,0,1,0,1,0,25443.0
2.0,6.0,10.0,3.0,7.0,1.0,7,7.0,3,0,0,0,0,1,0,0,0,0,0,1,32222.0
3.0,10.0,4.0,7.0,5.0,1.0,6,4.0,3,1,1,0,0,0,1,0,0,0,0,1,73748.0
4.0,5.0,10.0,6.0,9.0,0.0,8,1.0,4,0,1,1,0,1,0,0,0,0,0,1,16000.0
23.0,26.0,23.0,3.0,3.0,0.0,10,10.0,7,1,1,1,1,0,0,0,0,1,0,1,250000.0
15.0,20.0,15.0,5.0,5.0,0.0,6,10.0,19,1,1,1,1,1,1,1,1,1,0,1,107406.0
13.0,20.0,17.0,6.0,2.0,0.0,6,1.0,5,1,0,0,1,0,1,0,1,0,0,1,65152.0
6.0,10.0,10.0,5.0,4.0,2.0,5,9.0,16,1,1,1,1,1,1,1,1,0,0,1,32222.0
15.0,20.0,10.0,5.0,7.0,1.0,6,0.0,4,0,1,0,0,1,0,0,0,0,0,1,55851.0
7.0,10.0,10.0,5.0,6.0,1.0,3,5.0,6,1,1,1,0,0,0,0,1,0,0,0,49407.0
20.0,30.0,30.0,3.0,7.0,0.0,3,0.0,9,1,1,0,1,1,0,0,1,0,0,1,94517.0
5.0,10.0,10.0,6.0,5.0,1.0,2,0.0,6,0,1,1,0,0,0,0,0,1,1,1,59073.0
12.0,15.0,12.0,5.0,5.0,0.0,9,2.0,4,0,1,1,1,0,0,0,0,0,0,1,110063.0
10.0,15.0,10.0,6.0,2.0,0.0,6,5.0,5,1,0,0,0,0,0,1,0,0,0,0,54442.0
18.0,13.0,18.0,5.0,7.0,0.0,6,1.0,3,0,1,0,1,0,0,0,0,0,0,1,82703.0
5.0,6.0,6.0,6.0,3.0,1.0,2,10.0,2,0,0,1,0,0,0,0,0,0,0,1,53703.0
14.0,20.0,14.0,6.0,5.0,1.0,6,1.0,4,1,0,0,1,0,0,1,0,0,0,1,89636.0
8.0,14.0,8.0,5.0,8.0,0.0,10,10.0,1,1,0,0,0,0,0,0,0,0,0,1,25000.0
11.0,17.0,11.0,5.0,5.0,2.0,10,2.0,6,0,1,0,0,1,0,0,1,0,0,1,115000.0
3.0,7.0,3.0,5.0,4.0,0.0,8,0.0,9,1,1,1,1,1,0,1,0,1,0,1,13200.0
8.0,8.0,4.0,7.0,4.0,2.0,10,10.0,3,1,0,0,0,0,0,0,0,0,0,1,95400.0
13.0,18.0,13.0,6.0,5.0,0.0,8,10.0,3,0,1,0,0,0,0,0,1,1,0,1,110000.0
23.0,25.0,25.0,6.0,6.0,0.0,10,10.0,4,0,1,1,1,0,1,0,0,0,0,1,215000.0
6.0,8.0,10.0,6.0,2.0,0.0,8,10.0,5,0,1,0,1,0,0,0,1,0,0,1,35545.0
15.0,18.0,15.0,3.0,2.0,0.0,6,0.0,5,0,1,0,1,0,0,0,1,0,0,0,37592.0
8.0,9.0,10.0,6.0,4.0,0.0,7,0.0,4,0,1,1,0,0,0,0,0,0,0,1,66066.0
2.0,3.0,10.0,5.0,3.0,1.0,6,2.0,3,0,1,1,0,0,0,0,0,0,0,1,15442.0
5.0,10.0,5.0,6.0,6.0,1.0,3,10.0,2,1,1,0,0,0,0,0,0,0,0,1,64444.0
21.0,25.0,26.0,3.0,3.0,0.0,7,1.0,3,0,1,0,1,0,0,0,1,0,0,1,161109.0
22.0,36.0,22.0,5.0,3.0,0.0,1,10.0,13,1,1,1,1,1,0,1,1,0,0,1,72693.0
12.0,16.0,12.0,5.0,5.0,1.0,6,7.0,1,0,0,0,0,0,0,0,0,0,0,1,82857.0
12.0,18.0,13.0,6.0,9.0,1.0,6,0.0,5,0,1,1,1,1,0,0,0,0,0,1,111417.0
4.0,8.0,13.0,5.0,5.0,2.0,6,0.0,5,0,1,1,1,0,0,0,0,0,0,1,89134.0
24.0,28.0,25.0,5.0,4.0,1.0,10,1.0,1,0,0,0,0,1,0,0,0,0,0,1,275000.0
5.0,10.0,10.0,5.0,5.0,1.0,3,2.0,8,0,1,1,1,0,0,0,1,0,0,1,48762.0
9.0,12.0,10.0,5.0,4.0,1.0,3,0.0,10,1,1,1,1,0,0,0,1,0,1,1,69814.0
11.0,14.0,10.0,5.0,4.0,0.0,6,7.0,3,0,0,0,1,0,1,0,0,0,0,1,107406.0
24.0,24.0,24.0,5.0,6.0,1.0,6,1.0,7,1,1,0,0,1,0,0,1,1,1,1,167125.0
18.0,20.0,18.0,4.0,5.0,0.0,1,1.0,1,0,0,0,0,0,1,0,0,0,0,1,116309.0
2.0,7.0,2.0,5.0,7.0,0.0,8,0.0,5,0,1,1,1,0,1,0,0,0,0,1,18069.0
3.0,7.0,3.0,6.0,4.0,2.0,2,10.0,0,0,0,0,0,0,0,0,0,0,0,1,47259.0
5.0,15.0,25.0,3.0,2.0,1.0,1,10.0,5,0,0,0,0,0,0,1,1,0,0,0,43616.0
18.0,30.0,17.0,5.0,9.0,1.0,6,0.0,9,1,1,1,0,0,1,1,0,0,1,1,225861.0
12.0,20.0,10.0,5.0,1.0,0.0,10,0.0,10,1,1,1,1,0,0,0,1,1,1,0,120000.0
23.0,33.0,23.0,5.0,5.0,1.0,6,1.0,2,1,0,0,1,0,0,0,0,0,0,1,61866.0
12.0,18.0,12.0,7.0,3.0,0.0,2,1.0,3,1,0,0,1,0,0,0,0,0,0,0,70888.0
20.0,26.0,10.0,5.0,5.0,2.0,6,1.0,1,0,0,0,0,0,0,1,0,0,0,0,102036.0
3.0,7.0,3.0,6.0,3.0,1.0,6,2.0,4,0,1,1,0,0,0,0,0,0,0,1,26852.0
4.0,8.0,4.0,5.0,7.0,1.0,10,0.0,4,0,1,0,1,0,1,0,0,0,0,1,104800.0
4.0,8.0,4.0,6.0,9.0,1.0,3,1.0,1,0,0,0,0,1,0,0,0,0,0,1,85925.0
4.0,9.0,5.0,5.0,5.0,1.0,6,10.0,5,0,1,1,1,0,1,0,0,0,0,1,116988.0
6.0,12.0,10.0,5.0,2.0,1.0,10,0.0,12,1,1,1,1,0,1,1,1,1,1,1,60000.0
5.0,10.0,5.0,5.0,2.0,0.0,10,0.0,8,1,1,1,1,0,0,0,1,0,1,1,180000.0
2.0,4.0,10.0,4.0,6.0,1.0,7,1.0,5,1,0,0,1,0,1,0,0,0,0,1,34370.0
2.0,11.0,4.0,5.0,9.0,1.0,10,10.0,4,1,0,0,1,0,1,0,0,0,0,1,120000.0
2.0,11.0,3.0,5.0,5.0,2.0,9,1.0,5,0,0,1,1,0,0,0,0,1,1,1,100636.0
27.0,37.0,25.0,3.0,4.0,1.0,6,10.0,2,1,0,0,0,1,0,0,0,0,0,0,107406.0
2.0,4.0,2.0,5.0,5.0,0.0,7,2.0,3,1,0,1,0,0,0,0,0,0,0,1,32222.0
10.0,11.0,10.0,3.0,2.0,0.0,8,2.0,3,0,1,1,0,0,0,0,0,0,0,1,60000.0
14.0,22.0,21.0,6.0,7.0,2.0,10,10.0,5,1,0,0,1,1,0,0,0,0,0,1,52840.0
15.0,25.0,15.0,4.0,2.0,0.0,10,0.0,9,1,1,1,1,1,0,1,1,0,0,1,95000.0
6.0,8.0,15.0,3.0,3.0,1.0,9,1.0,5,1,0,0,1,0,0,0,0,1,1,1,114649.0
10.0,14.0,10.0,5.0,7.0,0.0,10,1.0,4,1,1,0,0,0,0,1,0,0,0,1,330000.0
8.0,8.0,8.0,6.0,5.0,1.0,6,1.0,7,0,0,1,1,0,1,0,0,1,0,1,10304.0
4.0,10.0,3.0,5.0,4.0,1.0,6,1.0,6,1,0,0,1,1,0,0,0,0,0,1,34585.0
10.0,12.0,11.0,6.0,9.0,1.0,6,0.0,7,1,1,1,0,1,1,0,0,0,1,1,132132.0
8.0,16.0,10.0,6.0,5.0,0.0,8,1.0,4,0,0,1,0,1,0,0,0,0,0,1,70000.0
2.0,3.0,3.0,3.0,4.0,0.0,6,0.0,5,0,1,0,1,0,0,0,0,0,0,1,32222.0
25.0,29.0,24.0,6.0,2.0,0.0,6,1.0,9,0,1,1,1,0,0,0,0,0,1,1,141776.0
8.0,16.0,14.0,5.0,2.0,1.0,10,10.0,1,1,0,0,0,0,0,0,0,0,0,1,336000.0
10.0,13.0,10.0,3.0,7.0,1.0,6,1.0,3,1,0,1,0,0,0,0,0,0,0,1,55323.0
15.0,20.0,15.0,5.0,5.0,0.0,9,2.0,3,0,1,1,0,0,0,0,0,0,0,1,124840.0
2.0,5.0,2.0,5.0,2.0,0.0,6,0.0,4,1,0,0,1,1,0,0,0,0,0,1,18000.0
25.0,28.0,28.0,2.0,9.0,1.0,6,10.0,4,0,0,0,1,0,1,1,0,0,1,1,76258.0
0.0,5.0,1.0,5.0,3.0,0.0,6,1.0,4,1,0,0,1,0,0,0,0,1,0,0,13445.0
5.0,14.0,5.0,6.0,3.0,0.0,6,7.0,4,0,1,1,0,0,0,0,1,0,0,1,161109.0
4.0,9.0,3.0,6.0,7.0,1.0,3,3.0,4,1,1,1,1,0,0,0,0,0,0,1,73036.0
18.0,25.0,18.0,5.0,7.0,1.0,10,1.0,6,1,1,1,1,1,0,0,0,0,0,1,285000.0
14.0,16.0,14.0,5.0,5.0,0.0,6,0.0,5,0,1,1,1,0,1,0,0,0,0,0,80555.0
7.0,10.0,7.0,5.0,7.0,1.0,4,0.0,6,1,1,1,1,1,0,0,0,0,0,1,33258.0
4.0,7.0,5.0,5.0,7.0,0.0,10,0.0,9,1,1,0,1,0,1,1,1,0,0,1,78000.0
6.0,13.0,6.0,6.0,6.0,0.0,9,0.0,7,0,1,1,1,0,1,0,0,0,0,1,76433.0
8.0,11.0,10.0,5.0,1.0,0.0,10,0.0,4,1,0,1,0,0,0,0,0,0,0,0,150000.0
12.0,17.0,17.0,6.0,7.0,2.0,6,10.0,5,0,1,0,1,0,1,0,0,0,0,1,140403.0
3.0,15.0,3.0,5.0,4.0,2.0,6,0.0,4,1,1,1,0,0,1,0,0,0,0,1,26112.0
4.0,7.0,5.0,6.0,9.0,1.0,3,3.0,8,1,0,0,1,1,0,1,0,0,1,1,214812.0
42.0,42.0,42.0,3.0,1.0,1.0,10,9.0,8,1,0,0,1,1,0,1,0,1,0,1,175000.0
10.0,18.0,12.0,4.0,9.0,2.0,10,8.0,9,1,0,0,1,0,1,1,1,0,0,1,107000.0
19.0,27.0,20.0,5.0,7.0,0.0,9,0.0,5,0,1,1,1,1,1,0,0,0,0,1,80601.0
4.0,6.0,4.0,5.0,4.0,1.0,4,1.0,4,1,0,0,0,0,0,0,0,0,0,1,19142.0
32.0,35.0,44.0,5.0,9.0,1.0,10,10.0,2,0,0,0,1,0,0,0,0,0,0,1,200000.0
5.0,7.0,10.0,6.0,2.0,1.0,2,0.0,5,0,1,1,1,0,1,0,0,0,0,1,41888.0
25.0,27.0,10.0,6.0,6.0,1.0,3,9.0,4,0,1,0,0,0,0,1,0,0,0,1,64444.0
15.0,22.0,15.0,5.0,4.0,1.0,6,7.0,3,0,1,0,0,1,0,0,0,0,0,1,79786.0
1.0,5.0,1.0,3.0,4.0,1.0,6,0.0,6,0,1,1,0,0,1,0,0,0,0,1,30404.0
13.0,30.0,10.0,7.0,3.0,1.0,5,10.0,2,0,0,0,0,0,1,0,0,1,0,0,92369.0
10.0,12.0,10.0,5.0,6.0,1.0,10,2.0,2,0,1,1,0,0,0,0,0,0,0,1,150000.0
10.0,10.0,10.0,5.0,4.0,0.0,6,0.0,3,0,0,1,1,0,0,0,0,0,0,1,87876.0
0.0,8.0,1.0,2.0,2.0,2.0,3,0.0,16,1,1,1,1,1,1,1,1,0,1,0,12889.0
6.0,8.0,10.0,6.0,4.0,0.0,10,2.0,2,0,1,0,0,0,0,0,0,0,0,1,115000.0
37.0,46.0,10.0,6.0,7.0,0.0,9,8.0,6,0,0,0,1,1,1,0,0,1,0,1,94267.0
6.0,15.0,7.0,5.0,8.0,0.0,6,10.0,10,1,1,1,0,1,1,0,0,1,0,1,50000.0
11.0,14.0,11.0,5.0,9.0,1.0,6,2.0,2,0,1,1,0,0,0,0,0,0,0,1,112312.0
9.0,13.0,10.0,6.0,4.0,0.0,6,0.0,6,0,1,1,1,0,0,0,0,0,0,0,100000.0
43.0,44.0,44.0,3.0,7.0,0.0,10,8.0,11,0,1,0,1,1,1,0,1,0,0,1,90000.0
2.0,5.0,10.0,5.0,4.0,2.0,6,10.0,1,0,0,0,0,0,0,1,0,0,0,1,10800.0
4.0,9.0,4.0,3.0,7.0,0.0,0,1.0,4,0,0,0,1,1,0,0,0,0,0,1,16577.0
29.0,38.0,10.0,6.0,4.0,1.0,9,6.0,7,1,1,0,0,0,0,1,0,0,0,1,129936.0
11.0,15.0,15.0,6.0,5.0,2.0,5,2.0,5,1,1,1,0,0,0,0,0,0,0,1,96666.0
21.0,31.0,21.0,6.0,8.0,2.0,3,0.0,1,0,0,0,0,0,1,0,0,0,0,1,128887.0
28.0,36.0,28.0,6.0,6.0,2.0,3,9.0,4,1,0,0,1,0,0,1,0,0,0,0,67666.0
0.0,41.0,10.0,7.0,8.0,2.0,5,1.0,6,1,0,0,1,1,0,1,0,0,0,1,85925.0
8.0,8.0,10.0,5.0,3.0,2.0,0,0.0,3,0,1,0,1,0,0,0,1,0,0,1,24243.0
15.0,20.0,10.0,5.0,9.0,1.0,2,1.0,7,0,1,1,0,0,0,0,1,1,0,1,112777.0
17.0,17.0,8.0,6.0,5.0,1.0,2,10.0,7,1,1,0,1,1,0,0,1,0,0,1,107406.0
15.0,22.0,15.0,6.0,7.0,2.0,6,10.0,1,0,0,0,0,1,0,0,0,0,0,1,128887.0
18.0,30.0,20.0,6.0,6.0,0.0,3,1.0,5,0,0,0,1,1,0,0,0,0,0,1,111702.0
2.0,8.0,2.0,3.0,3.0,1.0,6,8.0,8,1,0,0,1,0,1,0,0,0,1,0,60147.0
25.0,38.0,25.0,2.0,4.0,0.0,6,1.0,4,0,0,0,1,1,0,0,0,1,0,1,85846.0
4.0,10.0,5.0,5.0,6.0,0.0,7,1.0,7,0,1,0,0,0,0,0,0,0,1,1,42962.0
11.0,17.0,11.0,6.0,4.0,0.0,6,9.0,6,0,0,0,0,1,0,1,0,0,1,1,144842.0
8.0,15.0,8.0,7.0,4.0,1.0,6,10.0,2,0,0,0,0,0,0,0,0,0,1,1,67227.0
25.0,25.0,27.0,5.0,3.0,0.0,9,6.0,3,0,1,0,0,0,1,0,0,0,0,1,144585.0
5.0,7.0,7.0,6.0,4.0,0.0,8,2.0,3,0,1,0,0,0,0,0,1,0,0,1,19747.0
0.0,4.0,10.0,5.0,4.0,1.0,4,0.0,9,0,1,0,1,0,1,1,1,0,0,1,20338.0
9.0,18.0,9.0,4.0,2.0,2.0,6,0.0,6,1,1,0,1,0,1,0,0,0,0,0,104843.0
4.0,6.0,4.0,7.0,9.0,1.0,7,1.0,10,1,1,1,1,1,0,1,1,1,0,1,35444.0
3.0,8.0,3.0,5.0,7.0,1.0,6,1.0,7,0,1,0,0,1,0,0,0,1,1,1,98223.0
10.0,14.0,10.0,5.0,6.0,0.0,5,0.0,20,1,1,1,1,0,1,1,0,1,1,1,214812.0
2.0,5.0,3.0,5.0,7.0,2.0,10,8.0,6,1,1,0,1,0,1,0,1,0,0,1,92000.0
14.0,14.0,14.0,5.0,4.0,0.0,0,0.0,1,0,0,0,0,0,0,0,0,0,0,1,111892.0
15.0,26.0,15.0,6.0,4.0,1.0,3,8.0,8,0,1,1,1,0,1,0,0,0,0,0,26852.0
4.0,13.0,10.0,6.0,9.0,1.0,10,10.0,8,1,0,0,0,0,0,1,0,0,1,1,140000.0
22.0,26.0,26.0,7.0,5.0,1.0,6,10.0,1,0,0,0,0,0,0,0,0,0,0,1,150000.0
15.0,16.0,15.0,3.0,5.0,2.0,6,1.0,3,0,1,0,0,0,1,0,0,0,0,1,89048.0
24.0,28.0,24.0,6.0,4.0,0.0,5,0.0,3,0,0,1,0,0,0,0,0,0,1,0,322219.0
6.0,11.0,10.0,6.0,7.0,1.0,6,10.0,4,1,1,0,0,0,0,0,0,0,1,0,96666.0
10.0,18.0,10.0,5.0,6.0,1.0,6,1.0,1,1,0,0,0,0,0,0,0,0,0,1,85130.0
36.0,40.0,42.0,5.0,5.0,1.0,10,7.0,6,0,1,1,0,1,0,0,0,0,0,1,130000.0
5.0,7.0,5.0,6.0,9.0,0.0,6,1.0,9,0,1,1,1,1,1,0,0,0,0,1,80555.0
10.0,13.0,10.0,6.0,2.0,1.0,5,0.0,11,1,1,1,1,1,0,1,1,1,0,0,45111.0
5.0,8.0,5.0,6.0,5.0,1.0,10,0.0,5,0,1,1,1,0,0,0,0,0,0,1,200000.0
11.0,20.0,14.0,3.0,7.0,1.0,6,4.0,2,1,0,0,1,0,0,0,0,0,0,1,64444.0
3.0,4.0,3.0,5.0,5.0,0.0,6,0.0,8,1,1,1,1,1,0,0,0,0,1,1,11355.0
15.0,20.0,10.0,7.0,9.0,1.0,10,10.0,1,0,0,0,0,0,0,0,0,0,0,1,130000.0
8.0,26.0,10.0,5.0,4.0,0.0,7,0.0,8,0,1,1,1,0,0,0,0,0,1,1,214812.0
2.0,9.0,2.0,6.0,7.0,1.0,2,1.0,13,1,1,1,1,0,1,1,1,0,0,1,16111.0
4.0,6.0,4.0,3.0,4.0,2.0,6,0.0,8,1,1,1,1,1,0,0,0,0,0,1,27926.0
6.0,8.0,8.0,5.0,9.0,1.0,0,0.0,6,1,0,0,1,0,1,1,0,0,0,1,31703.0
2.0,3.0,10.0,2.0,2.0,2.0,10,0.0,3,0,1,1,0,0,0,0,0,0,0,1,40000.0
14.0,18.0,18.0,6.0,6.0,0.0,8,1.0,3,0,0,0,1,0,0,0,1,0,0,1,65000.0
10.0,18.0,10.0,6.0,9.0,1.0,6,1.0,9,1,1,0,1,1,1,1,1,0,0,1,123517.0
24.0,29.0,24.0,6.0,2.0,1.0,6,8.0,9,1,1,0,1,0,1,1,0,0,0,1,19333.0
11.0,25.0,11.0,5.0,9.0,1.0,6,2.0,3,0,1,1,0,0,0,0,0,0,0,1,91719.0
28.0,32.0,28.0,5.0,5.0,0.0,10,1.0,5,0,0,0,1,0,1,0,0,0,0,1,201000.0
28.0,34.0,10.0,5.0,1.0,0.0,6,10.0,7,0,1,0,1,0,1,0,1,0,0,0,20000.0
4.0,10.0,4.0,5.0,9.0,0.0,9,0.0,4,1,1,0,0,0,0,0,0,0,0,1,68153.0
15.0,20.0,10.0,5.0,4.0,0.0,10,0.0,6,1,1,1,1,0,0,0,0,0,0,1,210000.0
1.0,3.0,10.0,4.0,3.0,2.0,6,0.0,8,0,1,1,1,0,0,0,1,1,0,1,42923.0
2.0,3.0,2.0,6.0,9.0,0.0,8,1.0,2,0,0,0,1,1,0,0,0,0,0,1,17279.0
5.0,9.0,5.0,5.0,4.0,2.0,10,8.0,4,0,1,0,1,0,1,0,0,0,0,1,85500.0
5.0,7.0,10.0,5.0,8.0,2.0,10,0.0,7,1,1,0,1,0,0,1,0,0,0,1,130000.0
6.0,10.0,8.0,3.0,9.0,1.0,6,1.0,4,1,1,1,0,0,0,0,1,0,0,1,13363.0
19.0,25.0,18.0,6.0,9.0,1.0,10,1.0,10,1,1,0,0,1,0,1,1,1,1,1,194000.0
10.0,14.0,10.0,5.0,4.0,0.0,6,1.0,6,1,1,0,1,0,0,0,0,0,0,1,45420.0
11.0,14.0,11.0,7.0,4.0,1.0,5,10.0,5,0,1,1,1,0,1,0,0,0,0,0,128887.0
12.0,15.0,12.0,6.0,7.0,0.0,10,1.0,5,0,1,0,1,0,1,0,0,0,0,1,131000.0
7.0,9.0,10.0,5.0,3.0,2.0,10,0.0,6,1,1,1,1,0,1,0,0,0,0,1,200000.0
3.0,10.0,4.0,5.0,6.0,1.0,3,8.0,7,1,1,0,1,0,1,0,0,1,1,1,51448.0
1.0,8.0,1.0,3.0,2.0,2.0,5,1.0,9,1,1,1,1,1,1,0,0,0,0,1,38666.0
10.0,18.0,10.0,3.0,7.0,1.0,3,0.0,1,0,0,0,0,0,0,0,0,0,0,1,75184.0
6.0,12.0,10.0,6.0,5.0,1.0,6,4.0,7,1,0,0,1,1,0,0,1,0,0,1,31621.0
32.0,42.0,10.0,5.0,1.0,0.0,10,0.0,6,0,1,1,1,1,0,0,0,0,1,0,120000.0
6.0,9.0,7.0,5.0,5.0,0.0,8,2.0,3,0,1,1,0,0,0,0,0,0,0,1,66878.0
6.0,10.0,20.0,3.0,5.0,0.0,6,10.0,14,1,1,1,1,0,0,1,1,1,0,1,139628.0
15.0,30.0,10.0,6.0,1.0,0.0,6,10.0,11,1,0,0,1,0,0,1,0,0,1,0,448958.0
9.0,22.0,10.0,5.0,5.0,0.0,6,1.0,5,0,1,0,1,0,0,0,1,0,0,1,53164.0
3.0,9.0,10.0,5.0,3.0,2.0,0,1.0,7,1,1,0,1,1,1,0,0,0,0,1,11189.0
6.0,10.0,10.0,5.0,5.0,1.0,3,2.0,4,0,1,1,0,0,0,0,0,0,0,1,68740.0
6.0,10.0,10.0,6.0,4.0,2.0,10,0.0,9,1,0,1,0,0,1,0,0,1,1,1,180000.0
0.0,15.0,10.0,4.0,9.0,2.0,10,10.0,4,0,1,1,0,0,0,0,0,0,0,1,75000.0
4.0,8.0,5.0,5.0,9.0,2.0,10,0.0,4,0,1,0,1,1,0,0,0,0,0,1,135000.0
40.0,41.0,10.0,7.0,3.0,0.0,1,1.0,5,1,1,0,0,0,0,1,0,0,0,1,61789.0
3.0,14.0,15.0,4.0,7.0,0.0,10,0.0,5,1,1,1,0,0,0,0,1,0,0,1,101000.0
13.0,25.0,14.0,5.0,4.0,0.0,10,10.0,7,1,1,1,1,0,0,0,1,0,0,1,325000.0
10.0,15.0,10.0,3.0,4.0,0.0,10,5.0,5,0,0,0,0,0,0,0,0,1,0,1,160000.0
3.0,5.0,15.0,5.0,4.0,2.0,6,0.0,3,0,1,1,0,0,1,0,0,0,0,1,52853.0
5.0,15.0,10.0,3.0,1.0,1.0,10,10.0,19,1,1,1,1,0,0,1,1,0,0,0,25000.0
2.0,9.0,10.0,5.0,4.0,2.0,10,9.0,6,1,1,1,0,1,0,0,0,0,0,1,73000.0
22.0,25.0,10.0,5.0,7.0,1.0,6,10.0,4,1,1,0,1,0,0,0,0,0,0,1,69369.0
18.0,24.0,24.0,6.0,5.0,0.0,6,10.0,9,1,1,0,1,1,0,0,0,0,0,1,78183.0
3.0,8.0,3.0,6.0,9.0,1.0,6,9.0,4,1,0,0,0,0,0,0,0,0,1,1,45111.0
6.0,10.0,6.0,5.0,3.0,0.0,10,7.0,4,0,0,1,1,0,0,0,0,0,0,1,125000.0
6.0,10.0,7.0,4.0,4.0,0.0,0,0.0,7,1,1,1,1,1,0,0,0,0,0,1,70368.0
7.0,10.0,7.0,5.0,3.0,2.0,10,10.0,4,1,0,0,0,0,0,1,0,0,0,1,200000.0
14.0,19.0,10.0,3.0,3.0,1.0,6,1.0,3,0,0,0,0,0,0,1,0,0,0,1,53909.0
6.0,6.0,20.0,6.0,7.0,0.0,8,10.0,7,1,1,1,0,1,0,0,0,0,0,1,36000.0
7.0,11.0,7.0,3.0,4.0,0.0,6,1.0,4,1,1,0,1,0,0,0,0,1,0,0,128887.0
4.0,15.0,4.0,5.0,9.0,0.0,6,10.0,2,1,0,0,0,0,0,0,0,0,0,1,53703.0
3.0,5.0,7.0,6.0,3.0,0.0,10,0.0,6,0,1,1,1,0,1,0,0,0,0,1,100000.0
24.0,28.0,10.0,3.0,5.0,0.0,8,1.0,4,0,1,0,0,0,0,1,0,1,0,1,74052.0
6.0,8.0,10.0,5.0,4.0,0.0,4,0.0,11,1,1,1,0,0,0,0,1,0,1,1,21534.0
5.0,2.0,5.0,6.0,4.0,1.0,6,0.0,6,0,1,1,1,0,0,0,0,0,1,1,79829.0
1.0,7.0,1.0,5.0,4.0,1.0,6,0.0,8,1,1,0,1,1,0,1,1,0,0,1,29000.0
2.0,3.0,2.0,4.0,4.0,2.0,7,8.0,5,0,1,1,1,0,1,0,0,0,0,1,27389.0
5.0,12.0,5.0,6.0,3.0,1.0,3,10.0,3,1,0,0,0,0,0,1,0,0,0,1,62296.0
15.0,20.0,10.0,1.0,1.0,0.0,6,0.0,12,1,1,1,1,1,0,0,0,0,0,0,268515.0
3.0,5.0,3.0,5.0,5.0,1.0,6,10.0,4,0,1,0,0,0,1,0,0,1,0,1,108002.0
2.0,3.0,2.0,3.0,3.0,2.0,7,2.0,4,0,1,0,1,0,0,0,0,1,0,1,23200.0
3.0,6.0,10.0,5.0,9.0,2.0,4,10.0,1,0,0,0,1,0,0,0,0,0,0,1,11365.0
3.0,10.0,5.0,5.0,4.0,1.0,6,6.0,10,1,1,0,0,0,0,1,0,0,0,1,100000.0
4.0,10.0,4.0,5.0,4.0,1.0,6,0.0,7,1,1,1,1,1,0,0,1,0,0,1,100275.0
16.0,20.0,16.0,6.0,5.0,0.0,3,0.0,6,1,1,1,1,0,1,0,0,0,0,1,247034.0
9.0,14.0,10.0,7.0,4.0,2.0,3,10.0,2,1,0,0,0,0,0,0,0,0,0,1,75184.0
11.0,16.0,13.0,5.0,4.0,1.0,3,0.0,6,1,1,1,1,0,0,0,0,0,1,1,106332.0
31.0,34.0,34.0,5.0,4.0,0.0,6,10.0,8,1,0,0,1,0,1,1,0,0,0,1,145345.0
1.0,5.0,2.0,2.0,2.0,2.0,9,0.0,8,1,1,0,1,1,1,0,1,0,0,1,28662.0
10.0,10.0,18.0,5.0,6.0,0.0,10,0.0,2,0,0,1,0,0,0,0,0,0,0,1,80000.0
26.0,31.0,31.0,6.0,5.0,1.0,3,10.0,3,1,0,0,0,0,0,0,0,0,0,1,81629.0
8.0,10.0,9.0,2.0,5.0,1.0,6,1.0,8,1,1,0,0,0,1,0,0,1,1,1,74873.0
10.0,29.0,10.0,4.0,4.0,1.0,3,0.0,17,1,1,0,1,1,1,1,1,0,0,1,69814.0
25.0,25.0,10.0,7.0,6.0,1.0,10,10.0,2,0,0,0,0,0,0,0,0,0,0,1,112000.0
10.0,12.0,10.0,5.0,1.0,0.0,6,0.0,5,0,1,1,0,0,0,0,1,1,0,0,93443.0
5.0,5.0,8.0,6.0,2.0,0.0,10,0.0,8,1,1,1,1,0,0,0,0,1,1,1,140000.0
10.0,12.0,10.0,2.0,6.0,1.0,3,5.0,4,0,1,1,0,0,0,0,0,1,0,1,113851.0
1.0,7.0,1.0,4.0,3.0,1.0,6,10.0,2,0,0,1,0,0,1,0,0,0,0,1,36856.0
14.0,19.0,14.0,5.0,9.0,1.0,9,10.0,6,1,1,0,0,0,0,0,0,1,1,1,211464.0
3.0,6.0,3.0,5.0,9.0,0.0,8,1.0,3,0,0,0,1,0,1,0,0,0,0,1,43822.0
3.0,10.0,12.0,5.0,5.0,2.0,3,10.0,4,0,0,0,1,0,0,0,0,0,0,1,47259.0
6.0,10.0,7.0,5.0,5.0,2.0,1,10.0,4,1,0,0,0,0,0,1,0,0,0,1,61789.0
28.0,39.0,28.0,5.0,2.0,1.0,5,1.0,4,0,0,0,1,0,1,0,1,0,0,0,51555.0
10.0,13.0,10.0,2.0,9.0,1.0,3,5.0,11,1,0,0,1,1,1,0,1,1,1,1,75184.0
2.0,4.0,2.0,2.0,2.0,0.0,5,0.0,6,1,0,1,0,1,0,0,0,0,1,0,47259.0
3.0,8.0,3.0,6.0,5.0,1.0,2,0.0,6,0,1,1,0,1,0,0,0,0,0,1,45648.0
4.0,12.0,4.0,5.0,7.0,0.0,10,1.0,5,1,0,1,0,0,0,0,0,1,0,1,140000.0
22.0,15.0,15.0,5.0,2.0,0.0,9,1.0,7,0,1,1,1,0,1,0,0,0,1,0,63694.0
6.0,13.0,10.0,5.0,4.0,1.0,6,1.0,8,0,0,1,0,1,0,0,0,1,1,1,33296.0
14.0,15.0,14.0,6.0,4.0,2.0,6,10.0,7,1,0,1,1,0,0,0,0,1,1,1,54941.0
3.0,7.0,10.0,5.0,4.0,1.0,6,0.0,5,0,1,0,1,0,1,0,0,0,0,1,68831.0
6.0,8.0,10.0,6.0,5.0,0.0,8,10.0,1,1,0,0,0,0,0,0,0,0,0,1,64178.0
8.0,1.0,10.0,5.0,2.0,2.0,10,10.0,3,0,0,0,0,0,0,0,0,0,0,0,20000.0
6.0,6.0,6.0,3.0,3.0,0.0,6,2.0,7,1,1,1,0,0,0,0,0,1,0,0,33384.0
2.0,10.0,6.0,5.0,3.0,2.0,9,1.0,3,1,0,1,0,0,0,0,0,0,1,1,53503.0
23.0,24.0,25.0,3.0,8.0,1.0,6,0.0,9,1,1,1,1,0,1,0,0,0,0,1,82966.0
5.0,8.0,5.0,3.0,5.0,1.0,1,9.0,8,1,1,1,1,0,0,1,0,0,1,1,45070.0
35.0,40.0,10.0,5.0,2.0,1.0,10,2.0,2,1,0,0,0,0,0,0,0,0,0,1,160000.0
2.0,10.0,10.0,6.0,6.0,1.0,2,10.0,11,1,1,1,0,1,0,0,1,0,0,1,53703.0
6.0,11.0,6.0,5.0,4.0,1.0,5,0.0,1,0,0,0,0,0,1,0,0,0,0,1,43587.0
5.0,15.0,6.0,4.0,3.0,1.0,6,0.0,8,0,1,0,1,1,1,0,0,0,0,1,19371.0
13.0,13.0,13.0,5.0,9.0,0.0,7,0.0,8,0,1,1,1,1,1,0,1,0,0,1,10741.0
11.0,15.0,11.0,7.0,6.0,1.0,10,9.0,2,1,0,0,0,0,0,1,0,0,0,1,260000.0
4.0,8.0,4.0,5.0,2.0,1.0,6,0.0,7,1,1,0,0,1,1,1,1,0,0,1,15256.0
6.0,9.0,10.0,5.0,7.0,1.0,6,0.0,4,1,1,1,1,0,0,0,0,0,0,1,99099.0
5.0,7.0,9.0,5.0,7.0,1.0,6,0.0,4,0,1,0,0,0,0,0,1,1,0,1,25548.0
7.0,10.0,10.0,5.0,9.0,1.0,4,2.0,7,0,1,1,0,1,0,1,0,0,1,1,29968.0
4.0,9.0,4.0,5.0,4.0,1.0,6,1.0,1,0,0,0,0,0,1,0,0,0,0,1,16824.0
5.0,5.0,10.0,6.0,9.0,1.0,6,10.0,2,1,0,0,0,0,0,0,0,0,0,1,139628.0
6.0,10.0,10.0,5.0,9.0,2.0,10,9.0,4,0,1,0,0,0,1,1,0,0,0,1,128731.0
3.0,11.0,10.0,5.0,3.0,0.0,1,0.0,5,1,0,1,1,0,0,1,0,0,1,1,72693.0
28.0,32.0,32.0,5.0,4.0,1.0,6,0.0,5,0,1,0,1,0,0,0,1,0,0,1,12000.0
6.0,10.0,7.0,6.0,2.0,1.0,6,10.0,3,1,0,0,1,0,0,0,0,0,0,1,67021.0
5.0,20.0,5.0,5.0,9.0,1.0,6,10.0,11,1,1,1,1,0,0,1,1,0,1,0,59459.0
6.0,9.0,7.0,3.0,4.0,1.0,3,0.0,8,0,1,1,1,1,1,0,0,0,0,1,80555.0
25.0,30.0,10.0,7.0,4.0,1.0,3,9.0,6,1,1,0,1,1,0,0,0,0,0,1,107406.0
5.0,15.0,4.0,5.0,9.0,2.0,6,10.0,8,1,1,0,1,0,0,0,0,1,0,1,56817.0
1.0,6.0,1.0,5.0,4.0,1.0,6,0.0,5,1,1,1,1,0,0,0,0,0,0,1,14662.0
5.0,6.0,10.0,4.0,7.0,1.0,10,10.0,4,1,1,0,0,1,0,0,0,0,0,1,50000.0
8.0,8.0,7.0,2.0,5.0,2.0,3,2.0,1,0,0,0,0,0,0,0,0,0,0,1,75184.0
25.0,25.0,25.0,5.0,7.0,0.0,10,1.0,6,1,1,1,1,0,0,0,0,0,0,1,265000.0
18.0,24.0,20.0,5.0,2.0,1.0,5,1.0,5,0,1,0,1,0,1,0,1,0,0,1,42962.0
2.0,9.0,2.0,5.0,5.0,2.0,10,0.0,4,1,0,0,0,0,0,1,0,0,0,1,90000.0
0.0,3.0,10.0,6.0,8.0,1.0,2,1.0,4,0,0,0,1,1,0,0,0,0,0,1,40814.0
1.0,7.0,10.0,5.0,8.0,1.0,5,9.0,7,1,0,0,0,0,1,1,0,0,1,0,21911.0
21.0,16.0,10.0,5.0,5.0,1.0,10,0.0,2,0,0,0,1,0,0,0,1,0,0,1,205000.0
3.0,10.0,2.0,6.0,5.0,2.0,2,9.0,4,1,0,0,0,0,0,0,0,0,0,1,41351.0
6.0,10.0,10.0,3.0,4.0,1.0,6,2.0,2,0,1,1,0,0,0,0,0,0,0,1,28570.0
12.0,15.0,12.0,5.0,6.0,0.0,9,0.0,5,0,1,1,1,0,1,0,0,0,0,1,89172.0
8.0,10.0,10.0,6.0,7.0,0.0,8,2.0,3,0,1,1,0,0,0,0,0,0,0,1,74052.0
3.0,5.0,4.0,5.0,3.0,1.0,6,0.0,5,0,1,1,1,0,1,0,0,0,0,1,16111.0
11.0,16.0,11.0,5.0,5.0,1.0,6,0.0,5,0,1,1,1,0,1,0,0,0,0,1,41382.0
10.0,17.0,9.0,2.0,5.0,2.0,6,0.0,7,1,1,0,1,0,1,0,1,0,0,1,14570.0
0.0,10.0,10.0,6.0,3.0,2.0,3,8.0,4,0,0,0,1,0,1,1,0,0,1,1,53703.0
8.0,11.0,10.0,6.0,4.0,1.0,3,10.0,0,0,0,0,0,0,0,0,0,0,0,1,64444.0
29.0,32.0,29.0,5.0,4.0,0.0,10,10.0,14,1,1,0,1,0,0,0,1,0,0,1,200000.0
3.0,6.0,3.0,5.0,7.0,0.0,10,8.0,8,1,1,1,1,0,1,0,0,0,0,1,53000.0
4.0,7.0,4.0,2.0,5.0,1.0,3,1.0,6,1,1,0,0,1,0,1,0,0,0,1,64444.0
10.0,20.0,15.0,6.0,8.0,0.0,0,3.0,1,1,0,0,0,0,0,0,0,0,0,1,39722.0
13.0,15.0,10.0,3.0,1.0,0.0,1,0.0,4,0,1,0,0,0,0,0,0,0,0,0,72693.0
4.0,9.0,10.0,7.0,4.0,1.0,9,10.0,2,1,0,0,0,0,0,0,0,0,0,1,101910.0
9.0,13.0,9.0,6.0,5.0,2.0,6,0.0,4,0,1,0,1,1,0,0,0,0,0,1,59073.0
4.0,7.0,4.0,5.0,5.0,0.0,4,7.0,1,0,1,0,0,0,0,0,0,0,0,1,11006.0
26.0,35.0,26.0,5.0,8.0,0.0,10,8.0,7,0,0,0,1,1,0,1,0,0,0,1,250000.0
21.0,29.0,29.0,6.0,3.0,2.0,6,10.0,1,1,0,0,0,0,0,0,0,0,0,1,68677.0
8.0,21.0,8.0,5.0,5.0,0.0,10,0.0,5,1,1,1,1,0,0,0,0,0,0,1,171000.0
12.0,16.0,12.0,5.0,4.0,1.0,5,1.0,1,0,0,0,0,1,0,0,0,0,0,1,85925.0
5.0,6.0,5.0,6.0,9.0,0.0,6,1.0,1,1,0,0,0,0,0,0,0,0,0,1,47059.0
7.0,9.0,10.0,5.0,4.0,0.0,10,10.0,5,0,1,1,1,0,1,0,0,0,0,1,160000.0
15.0,20.0,22.0,6.0,6.0,0.0,6,1.0,3,0,0,0,1,1,0,0,0,0,0,0,63000.0
23.0,28.0,23.0,6.0,2.0,0.0,8,1.0,3,0,0,0,1,1,0,0,0,0,1,1,45111.0
21.0,30.0,10.0,6.0,2.0,0.0,7,10.0,8,0,1,0,1,0,0,0,1,0,0,0,32222.0
25.0,30.0,25.0,5.0,5.0,0.0,6,10.0,2,1,0,0,0,0,0,1,0,0,0,1,85886.0
9.0,9.0,10.0,6.0,2.0,0.0,6,1.0,5,1,1,1,1,0,0,0,1,0,0,1,30074.0
4.0,31.0,25.0,5.0,7.0,0.0,0,1.0,6,0,0,0,1,1,1,1,0,0,0,1,30770.0
22.0,27.0,22.0,3.0,5.0,0.0,3,0.0,4,0,1,0,1,0,0,0,1,0,0,1,61222.0
15.0,18.0,15.0,6.0,8.0,0.0,6,2.0,4,0,1,1,0,0,0,0,0,0,0,1,64691.0
20.0,24.0,20.0,1.0,5.0,1.0,10,1.0,1,1,0,0,0,0,0,0,0,0,0,1,222000.0
12.0,14.0,14.0,3.0,7.0,0.0,6,4.0,2,1,0,0,1,0,0,0,0,0,0,1,51991.0
13.0,19.0,13.0,5.0,5.0,0.0,9,1.0,8,1,1,1,0,1,1,1,0,0,0,1,114649.0
22.0,24.0,24.0,6.0,7.0,0.0,8,2.0,3,0,1,1,0,0,0,0,0,0,0,1,74755.0
9.0,14.0,9.0,5.0,9.0,1.0,10,4.0,2,1,0,0,1,0,0,0,0,0,0,1,250000.0
5.0,3.0,8.0,5.0,4.0,2.0,6,10.0,3,0,0,0,1,0,0,0,1,0,0,1,22800.0
35.0,42.0,10.0,6.0,7.0,1.0,1,6.0,5,0,1,1,1,0,1,0,0,0,0,1,90866.0
13.0,18.0,10.0,5.0,6.0,2.0,6,1.0,1,0,0,0,0,1,0,0,0,0,0,1,30914.0
13.0,17.0,13.0,5.0,4.0,1.0,6,1.0,1,1,0,0,0,0,0,0,0,0,0,1,48074.0
1.0,2.0,10.0,3.0,3.0,1.0,1,0.0,8,1,1,1,1,0,1,0,1,0,0,1,36346.0
1.0,4.0,1.0,5.0,5.0,1.0,3,0.0,3,0,1,0,1,1,0,0,0,0,0,1,48333.0
1.0,4.0,1.0,2.0,4.0,0.0,8,0.0,7,1,0,1,1,0,0,0,0,1,0,1,10800.0
2.0,7.0,2.0,6.0,4.0,2.0,6,0.0,12,1,1,1,1,0,1,0,0,0,1,1,65514.0
15.0,30.0,10.0,7.0,9.0,1.0,10,10.0,3,1,0,0,0,0,0,0,0,0,0,1,220000.0
3.0,8.0,3.0,3.0,5.0,2.0,6,1.0,5,1,0,0,0,0,0,1,0,0,1,1,71238.0
4.0,8.0,10.0,2.0,7.0,0.0,9,0.0,5,1,1,1,0,0,0,1,0,0,0,1,76433.0
2.0,6.0,1.0,6.0,9.0,2.0,4,8.0,4,1,0,0,0,0,0,1,0,0,0,1,14787.0
35.0,45.0,10.0,7.0,9.0,2.0,6,10.0,4,0,0,0,0,0,0,1,0,0,0,1,114461.0
3.0,8.0,4.0,3.0,2.0,0.0,6,0.0,10,1,1,1,1,1,1,0,1,0,0,1,40814.0
30.0,30.0,10.0,3.0,7.0,1.0,10,10.0,3,0,0,0,1,0,0,0,0,0,0,1,140000.0
12.0,15.0,14.0,5.0,7.0,1.0,10,6.0,6,0,1,1,1,0,1,0,0,0,0,1,180000.0
5.0,23.0,5.0,5.0,9.0,1.0,10,9.0,2,0,0,0,0,0,0,1,0,0,0,1,120000.0
30.0,35.0,37.0,5.0,4.0,1.0,6,0.0,4,0,1,0,1,0,1,0,0,0,0,1,76307.0
2.0,6.0,2.0,2.0,2.0,1.0,6,0.0,9,1,1,0,1,0,1,0,1,0,1,1,42923.0
2.0,2.0,10.0,3.0,4.0,0.0,6,1.0,1,0,0,0,0,0,0,0,0,0,1,1,77332.0
1.0,9.0,10.0,3.0,4.0,2.0,10,10.0,10,1,1,1,1,1,1,1,0,0,0,1,39520.0
12.0,21.0,10.0,5.0,4.0,1.0,6,0.0,4,1,0,1,1,0,1,0,0,0,0,1,66373.0
10.0,23.0,10.0,5.0,4.0,1.0,3,8.0,8,0,1,1,1,1,0,0,0,0,0,1,75399.0
25.0,29.0,25.0,5.0,7.0,0.0,10,10.0,15,1,1,0,0,1,0,1,0,1,1,1,500000.0
6.0,15.0,6.0,5.0,5.0,0.0,9,1.0,4,0,0,0,1,0,0,0,0,0,1,1,125859.0
23.0,30.0,30.0,3.0,5.0,2.0,1,8.0,9,0,1,1,1,0,1,1,0,0,1,1,65424.0
18.0,23.0,24.0,5.0,5.0,0.0,10,0.0,5,0,1,0,1,1,1,0,0,0,0,1,125000.0
3.0,4.0,10.0,6.0,5.0,1.0,3,1.0,4,0,1,0,0,0,0,0,1,0,0,1,56925.0
21.0,29.0,21.0,2.0,5.0,1.0,3,8.0,6,0,0,0,1,0,1,1,0,0,0,1,59073.0
11.0,16.0,10.0,6.0,5.0,2.0,6,1.0,3,1,0,0,0,0,0,0,0,1,0,1,441936.0
9.0,13.0,10.0,2.0,9.0,1.0,3,10.0,7,1,1,0,1,1,0,0,0,0,0,1,268515.0
10.0,15.0,10.0,7.0,8.0,1.0,6,10.0,5,1,0,0,0,0,0,1,0,0,0,1,150000.0
2.0,15.0,2.0,2.0,2.0,0.0,10,0.0,5,0,1,1,0,0,0,0,0,0,0,1,84000.0
11.0,17.0,12.0,5.0,7.0,0.0,4,10.0,4,0,1,1,1,1,0,0,0,0,0,1,47854.0
3.0,10.0,3.0,5.0,4.0,1.0,10,9.0,9,1,1,0,0,1,0,0,0,0,1,1,140000.0
11.0,14.0,14.0,6.0,4.0,0.0,3,0.0,5,1,0,1,0,0,0,0,0,0,0,1,96666.0
4.0,11.0,4.0,5.0,8.0,1.0,3,10.0,8,1,1,1,1,0,0,1,0,1,1,1,73036.0
11.0,15.0,11.0,3.0,5.0,2.0,10,10.0,6,0,1,0,1,0,1,0,0,0,0,1,100000.0
6.0,8.0,6.0,6.0,6.0,0.0,6,1.0,3,1,0,0,1,0,0,0,0,0,0,1,43697.0
18.0,20.0,10.0,5.0,1.0,0.0,1,1.0,4,0,1,0,1,0,1,0,0,0,1,0,104678.0
5.0,10.0,5.0,5.0,5.0,0.0,0,1.0,2,0,0,0,1,1,0,0,0,0,0,1,26108.0
4.0,11.0,10.0,6.0,4.0,2.0,3,10.0,4,1,0,0,0,0,0,1,0,0,0,0,26989.0
15.0,21.0,18.0,6.0,4.0,1.0,3,0.0,5,0,1,0,1,1,0,0,0,0,0,0,64444.0
1.0,8.0,10.0,5.0,4.0,1.0,6,10.0,11,0,1,1,1,1,1,1,1,0,0,0,29644.0
11.0,15.0,10.0,4.0,1.0,0.0,6,0.0,5,1,1,1,1,0,0,0,0,0,0,0,64444.0
5.0,8.0,5.0,2.0,4.0,1.0,6,0.0,3,0,1,0,1,0,0,0,0,0,0,1,61866.0
5.0,7.0,10.0,7.0,7.0,1.0,6,3.0,3,1,0,0,1,0,0,0,0,0,0,1,69814.0
4.0,8.0,10.0,3.0,8.0,2.0,3,10.0,9,0,1,0,1,1,0,0,0,1,1,1,66592.0
2.0,2.0,10.0,3.0,4.0,1.0,6,1.0,6,1,1,1,1,0,0,0,1,0,0,1,24703.0
15.0,23.0,15.0,6.0,5.0,0.0,6,1.0,3,0,0,0,1,1,0,0,0,0,0,1,81416.0
13.0,16.0,10.0,5.0,9.0,0.0,10,0.0,4,0,1,0,1,0,0,0,1,0,0,1,117320.0
6.0,17.0,10.0,3.0,5.0,1.0,2,9.0,9,1,1,1,1,0,0,1,1,0,0,1,59073.0
0.0,11.0,10.0,3.0,9.0,2.0,10,1.0,7,1,1,0,0,1,0,0,0,0,1,0,50000.0
4.0,7.0,4.0,5.0,4.0,2.0,4,0.0,4,0,1,1,0,1,1,0,0,0,0,1,10767.0
14.0,15.0,15.0,5.0,7.0,1.0,10,6.0,8,1,1,1,0,0,1,0,0,0,0,1,130000.0
13.0,22.0,13.0,5.0,5.0,0.0,0,5.0,5,1,1,0,0,1,0,1,0,0,0,1,26108.0
9.0,7.0,10.0,5.0,5.0,0.0,9,0.0,2,0,0,0,1,0,1,0,0,0,0,1,63694.0
5.0,7.0,5.0,5.0,3.0,2.0,2,0.0,3,0,1,0,0,0,1,0,1,0,0,1,25777.0
4.0,17.0,8.0,5.0,5.0,0.0,6,9.0,8,1,0,0,1,0,1,0,0,0,0,0,38000.0
8.0,9.0,10.0,6.0,7.0,1.0,2,0.0,3,1,1,0,0,1,0,0,0,0,0,1,69814.0
11.0,22.0,10.0,6.0,4.0,1.0,3,1.0,6,1,1,0,0,0,0,0,0,0,0,1,48333.0
9.0,15.0,10.0,6.0,5.0,1.0,6,0.0,5,0,1,1,1,0,1,0,0,0,0,1,66592.0
15.0,25.0,10.0,3.0,3.0,0.0,6,0.0,0,0,0,0,0,0,0,0,0,0,0,1,80555.0
13.0,17.0,10.0,6.0,4.0,0.0,2,6.0,2,1,0,0,1,0,0,0,0,0,0,1,85925.0
3.0,6.0,10.0,5.0,4.0,1.0,6,1.0,6,1,1,1,1,1,0,0,0,1,0,1,47692.0
7.0,9.0,10.0,5.0,2.0,1.0,6,10.0,11,1,1,1,1,1,0,1,1,0,0,0,18259.0
7.0,14.0,10.0,7.0,6.0,0.0,7,0.0,8,0,1,0,1,0,1,1,1,0,0,1,45111.0
4.0,6.0,6.0,5.0,8.0,2.0,10,8.0,1,0,0,0,0,0,0,1,0,0,0,1,91000.0
6.0,12.0,6.0,5.0,7.0,1.0,7,10.0,2,0,0,0,1,0,1,0,0,0,0,1,48333.0
18.0,23.0,10.0,3.0,5.0,0.0,9,0.0,7,1,1,1,1,0,0,0,0,1,0,1,101910.0
13.0,18.0,17.0,5.0,4.0,0.0,6,0.0,4,0,1,1,1,0,0,0,0,0,0,1,96000.0
8.0,13.0,8.0,5.0,4.0,0.0,9,0.0,7,0,1,1,1,0,0,0,0,1,0,1,100636.0
2.0,4.0,2.0,5.0,9.0,0.0,6,9.0,13,1,1,1,1,0,0,1,1,1,0,0,10394.0
3.0,7.0,4.0,6.0,4.0,1.0,6,10.0,8,1,1,1,0,1,0,0,0,0,0,1,38448.0
10.0,10.0,10.0,3.0,4.0,2.0,10,10.0,3,0,0,0,0,1,1,1,0,0,0,1,120000.0
3.0,6.0,10.0,2.0,4.0,1.0,3,7.0,15,1,1,0,1,1,1,0,0,1,1,1,40814.0
12.0,12.0,10.0,5.0,5.0,1.0,4,10.0,5,0,1,1,1,0,1,0,0,0,0,1,41872.0
16.0,27.0,16.0,2.0,6.0,1.0,6,1.0,1,0,0,0,0,0,0,0,0,0,0,1,55249.0
25.0,24.0,24.0,5.0,9.0,1.0,9,0.0,5,1,1,1,0,0,0,0,0,0,0,1,146496.0
10.0,17.0,10.0,6.0,4.0,2.0,8,6.0,8,1,1,1,1,0,0,0,1,0,1,0,115000.0
7.0,9.0,7.0,3.0,4.0,0.0,6,1.0,2,0,0,0,1,0,1,0,0,0,0,1,48572.0
10.0,13.0,10.0,5.0,8.0,0.0,10,0.0,7,1,1,0,1,0,1,0,0,0,0,1,220000.0
0.0,3.0,4.0,5.0,4.0,1.0,8,10.0,4,0,1,1,1,0,0,0,0,0,0,1,18000.0
8.0,14.0,8.0,6.0,9.0,1.0,10,3.0,2,1,0,0,1,0,0,0,0,0,0,1,400000.0
18.0,23.0,10.0,5.0,4.0,1.0,10,2.0,4,0,1,0,0,0,0,0,0,0,0,1,115000.0
10.0,12.0,10.0,6.0,4.0,1.0,6,8.0,5,1,0,0,1,1,0,0,0,0,0,1,149746.0
15.0,18.0,15.0,6.0,9.0,0.0,2,6.0,3,0,0,1,0,0,0,0,0,1,0,1,131036.0
11.0,12.0,10.0,2.0,9.0,0.0,6,2.0,4,0,1,1,0,0,0,0,0,0,0,1,53703.0
4.0,14.0,4.0,2.0,3.0,1.0,6,9.0,15,1,1,1,1,1,1,1,0,1,1,0,33236.0
12.0,15.0,12.0,3.0,7.0,0.0,1,10.0,2,0,0,0,0,0,1,0,0,0,0,1,79235.0
8.0,13.0,10.0,6.0,4.0,0.0,3,1.0,4,0,0,0,1,1,0,0,0,0,0,1,102036.0
1.0,2.0,7.0,5.0,2.0,2.0,6,0.0,8,1,1,1,1,0,0,0,1,1,0,1,55851.0
24.0,25.0,24.0,2.0,5.0,1.0,3,0.0,9,0,1,1,1,1,1,0,0,0,0,1,69599.0
16.0,16.0,10.0,5.0,4.0,0.0,10,1.0,5,1,1,0,1,0,0,0,1,0,0,1,131000.0
2.0,5.0,3.0,5.0,3.0,2.0,5,0.0,8,1,1,1,0,0,1,1,0,0,1,1,64444.0
4.0,10.0,4.0,5.0,5.0,2.0,4,7.0,6,0,0,0,1,0,0,0,1,0,0,1,11963.0
6.0,14.0,6.0,6.0,5.0,1.0,6,5.0,7,0,1,1,0,1,0,0,0,0,0,1,46185.0
3.0,4.0,10.0,5.0,2.0,1.0,6,0.0,4,0,1,0,1,0,1,0,0,0,0,0,17411.0
1.0,10.0,10.0,3.0,7.0,1.0,6,5.0,5,1,0,1,0,1,0,0,0,0,0,0,16111.0
2.0,14.0,10.0,5.0,5.0,0.0,10,10.0,9,1,1,0,1,1,0,0,0,1,1,1,75000.0
10.0,15.0,10.0,2.0,1.0,0.0,6,0.0,8,1,1,1,1,0,0,0,0,1,0,0,54902.0
9.0,16.0,10.0,7.0,9.0,0.0,9,10.0,3,0,0,0,0,0,0,0,0,1,0,1,127388.0
27.0,42.0,27.0,6.0,6.0,1.0,10,9.0,2,1,0,0,0,0,0,1,0,0,0,1,150000.0
2.0,14.0,2.0,5.0,6.0,1.0,4,0.0,16,1,0,0,1,1,1,1,1,1,0,1,10349.0
4.0,7.0,10.0,5.0,9.0,1.0,10,3.0,3,1,0,0,1,0,0,0,0,0,0,1,115000.0
23.0,25.0,30.0,3.0,6.0,1.0,6,4.0,9,1,1,0,1,0,1,0,0,0,0,1,105706.0
4.0,5.0,4.0,2.0,4.0,1.0,6,10.0,4,1,1,1,0,0,0,0,0,0,0,1,230000.0
20.0,33.0,20.0,6.0,4.0,0.0,6,0.0,6,0,1,1,0,1,0,0,0,0,1,1,96511.0
8.0,10.0,10.0,7.0,4.0,2.0,10,1.0,4,0,1,0,1,0,0,0,1,0,0,1,120000.0
10.0,13.0,10.0,5.0,7.0,2.0,6,1.0,6,0,1,1,0,1,0,1,0,0,0,1,103460.0
15.0,27.0,15.0,6.0,4.0,1.0,6,6.0,7,1,0,0,0,1,0,1,0,0,0,1,167125.0
8.0,8.0,10.0,6.0,7.0,0.0,8,5.0,2,0,0,0,0,0,0,0,0,0,0,1,100000.0
4.0,18.0,4.0,5.0,5.0,0.0,2,5.0,4,0,0,0,1,0,0,0,0,0,0,1,46185.0
25.0,30.0,10.0,6.0,9.0,1.0,8,7.0,11,0,1,0,1,1,1,1,1,0,0,1,49368.0
2.0,6.0,2.0,5.0,9.0,0.0,10,1.0,6,1,1,1,1,1,0,0,0,0,0,1,90000.0
28.0,40.0,29.0,6.0,4.0,1.0,7,4.0,4,1,0,0,1,0,1,0,0,0,0,1,64444.0
4.0,7.0,4.0,5.0,4.0,2.0,4,1.0,2,0,1,0,0,1,0,0,0,0,0,1,11963.0
2.0,6.0,2.0,2.0,2.0,1.0,6,0.0,6,0,1,1,1,1,0,0,0,0,0,0,46926.0
12.0,14.0,25.0,3.0,7.0,0.0,10,10.0,4,1,1,0,0,0,0,0,0,0,1,1,255000.0
13.0,24.0,14.0,3.0,9.0,0.0,10,5.0,10,1,1,1,0,1,0,0,0,1,1,1,156000.0
30.0,30.0,10.0,6.0,6.0,0.0,0,10.0,2,0,0,0,0,0,0,1,0,0,0,1,80000.0
2.0,12.0,2.0,5.0,2.0,1.0,6,0.0,5,1,1,0,1,1,0,0,0,0,0,1,30933.0
3.0,5.0,5.0,3.0,4.0,1.0,6,0.0,2,0,0,0,1,0,0,0,0,0,0,1,79279.0
1.0,4.0,1.0,2.0,4.0,0.0,8,0.0,6,1,1,1,0,1,0,0,0,0,0,1,10200.0
3.0,8.0,1.0,5.0,6.0,1.0,1,9.0,3,1,0,0,0,0,0,1,0,0,0,1,58881.0
6.0,11.0,6.0,4.0,7.0,1.0,6,7.0,4,0,0,0,0,1,0,0,0,0,0,1,129244.0
17.0,20.0,20.0,5.0,4.0,1.0,1,1.0,2,1,0,0,1,0,0,0,0,0,0,1,138117.0
14.0,23.0,24.0,3.0,9.0,0.0,10,1.0,2,0,0,0,1,0,1,0,0,0,0,1,121000.0
42.0,45.0,10.0,3.0,9.0,2.0,10,9.0,6,1,0,0,0,0,1,1,0,0,1,1,320000.0
7.0,8.0,7.0,5.0,5.0,1.0,6,10.0,3,0,0,0,0,0,0,0,0,0,0,1,89087.0
10.0,18.0,10.0,6.0,4.0,1.0,6,2.0,3,0,1,0,0,0,0,0,1,0,0,1,26852.0
9.0,15.0,9.0,3.0,7.0,1.0,10,0.0,5,0,1,0,1,0,1,0,0,0,0,1,150000.0
3.0,15.0,3.0,3.0,5.0,0.0,9,0.0,6,0,1,1,1,0,1,0,0,1,0,1,50955.0
3.0,10.0,3.0,5.0,7.0,0.0,5,1.0,4,1,1,0,0,1,0,0,1,0,0,1,118147.0
4.0,10.0,10.0,6.0,9.0,2.0,6,1.0,7,1,1,0,0,1,1,1,0,1,0,1,82785.0
6.0,11.0,6.0,6.0,4.0,1.0,6,0.0,6,1,1,1,1,0,1,0,0,0,0,1,116988.0
25.0,30.0,25.0,6.0,4.0,1.0,0,0.0,2,0,0,0,1,1,0,0,0,0,0,1,31703.0
1.0,3.0,10.0,6.0,4.0,1.0,1,0.0,5,1,0,0,1,1,0,0,0,0,0,1,47250.0
17.0,23.0,10.0,6.0,1.0,0.0,4,0.0,4,0,0,0,0,1,1,1,0,0,0,0,11963.0
18.0,24.0,20.0,5.0,4.0,0.0,6,1.0,3,0,1,0,1,0,0,0,0,0,0,1,198198.0
6.0,11.0,10.0,6.0,5.0,2.0,2,10.0,3,1,0,0,0,0,0,1,0,0,0,1,53703.0
14.0,19.0,10.0,5.0,2.0,0.0,6,0.0,5,0,1,1,1,0,1,0,0,0,0,0,109670.0
1.0,7.0,1.0,5.0,4.0,0.0,6,9.0,5,1,1,0,0,1,0,1,0,0,0,0,12101.0
27.0,44.0,30.0,5.0,5.0,1.0,0,0.0,5,0,0,0,1,0,1,0,0,0,0,1,18462.0
2.0,4.0,15.0,6.0,7.0,1.0,6,10.0,4,1,1,0,1,0,0,0,0,0,0,1,47692.0
14.0,20.0,14.0,7.0,5.0,0.0,6,4.0,7,1,1,1,0,1,0,0,0,0,1,1,64444.0
40.0,40.0,40.0,7.0,5.0,1.0,10,0.0,4,0,1,0,1,0,1,0,0,0,0,1,158000.0
11.0,24.0,11.0,3.0,2.0,0.0,2,10.0,11,1,1,0,1,1,1,1,0,0,0,0,268515.0
10.0,23.0,10.0,7.0,2.0,0.0,9,0.0,8,0,1,1,1,1,1,0,1,0,0,1,84076.0
8.0,13.0,10.0,5.0,4.0,0.0,8,0.0,5,0,1,1,1,0,0,0,0,0,0,1,41469.0
20.0,25.0,25.0,5.0,5.0,1.0,6,8.0,6,0,1,1,1,1,0,0,0,0,0,1,167125.0
2.0,5.0,10.0,5.0,4.0,0.0,10,10.0,17,1,1,1,1,1,0,1,1,1,1,1,66000.0
13.0,20.0,16.0,5.0,5.0,0.0,10,0.0,5,0,1,1,1,0,0,0,0,0,0,1,151000.0
13.0,20.0,13.0,6.0,9.0,1.0,6,0.0,4,1,0,0,0,0,1,1,0,0,0,1,68104.0
18.0,22.0,18.0,6.0,4.0,1.0,4,1.0,2,0,1,0,0,0,1,0,0,0,0,1,14356.0
7.0,10.0,10.0,5.0,1.0,0.0,8,1.0,3,0,1,0,0,0,0,0,0,1,1,0,98736.0
10.0,13.0,13.0,6.0,4.0,0.0,6,7.0,7,0,1,1,1,1,0,0,0,0,0,1,91782.0
5.0,9.0,10.0,5.0,6.0,2.0,3,10.0,4,1,0,0,0,1,0,0,0,0,0,0,14229.0
3.0,5.0,3.0,6.0,9.0,1.0,10,0.0,5,1,1,0,1,0,0,0,0,0,0,1,121000.0
20.0,20.0,27.0,5.0,3.0,0.0,10,2.0,3,0,1,1,0,0,0,0,0,0,0,1,110000.0
3.0,5.0,10.0,5.0,8.0,1.0,6,1.0,7,0,1,1,1,0,1,0,0,0,0,1,50730.0
4.0,6.0,5.0,5.0,5.0,0.0,0,2.0,1,0,1,0,0,0,0,0,0,0,0,1,17903.0
33.0,39.0,10.0,6.0,4.0,1.0,5,0.0,11,1,1,1,1,0,1,1,1,0,0,1,105258.0
0.0,18.0,1.0,5.0,4.0,2.0,6,10.0,3,1,0,0,1,0,1,0,0,0,0,1,70000.0
25.0,35.0,25.0,6.0,4.0,0.0,3,0.0,5,0,0,0,1,1,1,0,0,0,0,1,75184.0
10.0,14.0,10.0,6.0,8.0,1.0,6,2.0,7,0,1,0,1,1,0,0,1,0,0,1,70959.0
3.0,5.0,3.0,3.0,6.0,0.0,6,7.0,2,0,0,0,0,0,0,0,0,0,0,1,70000.0
22.0,22.0,22.0,5.0,2.0,0.0,6,0.0,5,0,1,0,1,0,1,0,0,0,0,0,40000.0
9.0,12.0,10.0,5.0,9.0,0.0,6,7.0,10,0,1,1,0,1,0,1,1,0,0,1,134921.0
3.0,5.0,3.0,5.0,3.0,2.0,6,1.0,16,1,1,1,1,1,1,1,1,1,1,1,14150.0
5.0,10.0,5.0,5.0,4.0,1.0,6,5.0,8,1,1,1,1,1,1,0,0,0,0,1,66592.0
13.0,16.0,10.0,6.0,5.0,0.0,6,7.0,8,1,1,1,0,0,0,0,0,0,0,1,61866.0
32.0,50.0,34.0,5.0,3.0,1.0,10,0.0,20,0,1,1,1,1,1,1,1,0,0,1,154000.0
11.0,19.0,10.0,5.0,5.0,0.0,6,0.0,4,1,1,0,0,0,0,0,0,1,0,1,48428.0
1.0,9.0,10.0,5.0,4.0,2.0,6,0.0,11,1,1,1,1,0,1,0,1,1,0,1,26852.0
29.0,32.0,26.0,6.0,3.0,0.0,0,0.0,8,0,1,1,1,1,1,0,0,0,0,1,50352.0
25.0,33.0,10.0,6.0,8.0,0.0,6,0.0,3,0,1,1,0,0,0,0,0,1,0,1,198198.0
18.0,24.0,18.0,5.0,9.0,0.0,9,0.0,4,0,1,0,1,0,1,0,0,0,0,1,72898.0
0.0,8.0,1.0,3.0,5.0,2.0,10,9.0,3,1,0,0,0,0,0,1,0,0,0,0,50000.0
29.0,38.0,28.0,6.0,3.0,0.0,7,10.0,5,1,0,0,1,0,0,0,0,0,0,1,91295.0
10.0,10.0,10.0,5.0,9.0,0.0,6,1.0,7,0,0,0,0,1,1,0,0,1,0,1,56500.0
7.0,10.0,10.0,6.0,7.0,1.0,8,10.0,4,1,0,0,0,1,1,0,0,0,0,1,29621.0
9.0,15.0,9.0,6.0,8.0,0.0,8,7.0,5,0,0,0,0,0,1,0,0,0,0,1,95000.0
7.0,10.0,7.0,3.0,3.0,0.0,6,1.0,7,1,1,0,1,1,0,0,1,1,0,1,35990.0
4.0,10.0,4.0,5.0,7.0,0.0,1,9.0,9,1,0,0,0,0,0,1,0,1,1,1,72693.0
7.0,14.0,7.0,5.0,5.0,1.0,6,6.0,5,1,0,0,1,0,0,0,0,1,0,1,25876.0
31.0,40.0,31.0,5.0,5.0,0.0,10,1.0,7,0,1,1,1,0,0,0,0,0,0,1,181000.0
7.0,10.0,10.0,5.0,3.0,0.0,10,0.0,4,0,0,1,1,0,1,0,0,0,0,1,125000.0
11.0,15.0,12.0,7.0,2.0,1.0,6,10.0,4,1,0,0,0,0,1,1,0,0,0,1,34370.0
16.0,23.0,19.0,6.0,4.0,1.0,6,0.0,5,0,0,0,1,1,1,0,0,0,0,1,82703.0
12.0,19.0,12.0,6.0,9.0,2.0,6,1.0,2,0,0,0,0,1,0,0,0,0,0,1,128887.0
4.0,10.0,8.0,7.0,5.0,2.0,10,10.0,3,1,0,0,0,0,0,0,0,0,0,1,118000.0
16.0,24.0,16.0,6.0,9.0,1.0,6,1.0,6,0,0,1,1,1,0,0,0,0,0,1,132223.0
14.0,18.0,10.0,6.0,1.0,0.0,10,8.0,4,0,1,0,0,0,0,0,1,0,0,0,380000.0
15.0,24.0,15.0,5.0,3.0,0.0,10,0.0,6,1,1,0,1,1,0,1,0,0,0,1,110000.0
22.0,29.0,22.0,5.0,3.0,2.0,6,0.0,7,1,1,1,1,0,1,0,0,0,0,1,72065.0
12.0,20.0,14.0,3.0,9.0,0.0,6,1.0,9,1,0,1,0,1,0,0,0,1,1,1,95384.0
26.0,27.0,26.0,6.0,5.0,1.0,6,0.0,6,0,1,1,1,0,0,0,0,0,0,1,107406.0
16.0,37.0,10.0,6.0,1.0,0.0,6,10.0,5,0,0,0,1,0,0,0,0,0,0,0,60000.0
20.0,20.0,20.0,5.0,7.0,0.0,10,0.0,5,0,1,1,0,0,0,0,1,0,1,1,226000.0
26.0,27.0,10.0,6.0,2.0,2.0,5,2.0,5,1,1,0,0,0,0,0,1,0,0,0,80555.0
17.0,21.0,17.0,6.0,5.0,1.0,6,8.0,6,0,0,1,1,0,1,0,0,0,0,1,103205.0
12.0,23.0,12.0,6.0,4.0,1.0,6,1.0,6,0,1,1,1,1,0,0,0,0,0,1,38400.0
5.0,9.0,5.0,3.0,8.0,0.0,3,0.0,8,0,1,1,1,0,1,1,0,0,0,1,64444.0
6.0,6.0,6.0,5.0,5.0,0.0,10,4.0,2,1,0,0,1,0,0,0,0,0,0,1,245000.0
10.0,24.0,10.0,7.0,5.0,2.0,2,10.0,3,0,0,0,0,0,0,0,0,0,0,1,41351.0
27.0,27.0,10.0,1.0,4.0,0.0,10,5.0,4,1,0,0,1,0,0,0,0,0,0,1,172000.0
8.0,9.0,9.0,5.0,6.0,1.0,1,2.0,4,0,1,0,1,0,0,0,1,0,0,1,69785.0
26.0,42.0,10.0,6.0,8.0,1.0,6,10.0,3,1,0,0,0,0,1,0,0,0,1,1,26852.0
2.0,3.0,10.0,5.0,9.0,0.0,3,0.0,4,0,1,1,1,0,0,0,0,0,0,0,21266.0
2.0,5.0,2.0,5.0,5.0,1.0,10,0.0,3,1,1,0,0,0,0,0,0,0,0,1,82000.0
2.0,6.0,3.0,5.0,8.0,1.0,3,10.0,10,1,1,0,1,0,0,1,0,0,1,1,49407.0
10.0,15.0,10.0,6.0,1.0,0.0,6,0.0,6,0,1,1,1,0,1,0,0,0,1,0,65805.0
5.0,13.0,10.0,5.0,9.0,1.0,9,10.0,7,0,0,0,1,0,1,0,0,0,0,1,82802.0
4.0,12.0,10.0,6.0,9.0,1.0,2,0.0,10,1,1,0,1,1,0,0,1,0,0,1,39740.0
25.0,27.0,10.0,3.0,7.0,0.0,10,0.0,8,0,1,0,1,1,0,0,0,0,1,1,160000.0
6.0,13.0,6.0,6.0,2.0,1.0,6,10.0,8,1,1,0,0,0,0,1,0,0,1,1,67723.0
15.0,19.0,10.0,6.0,9.0,1.0,10,10.0,3,0,0,0,1,0,0,0,0,0,0,1,160000.0
9.0,12.0,10.0,6.0,4.0,1.0,2,0.0,2,0,0,0,0,1,0,0,0,0,0,1,64444.0
5.0,7.0,10.0,6.0,9.0,0.0,8,0.0,5,1,0,1,1,0,1,0,0,0,0,1,39600.0
4.0,10.0,4.0,5.0,2.0,1.0,2,0.0,4,1,1,0,0,0,0,0,0,0,0,1,30074.0
7.0,12.0,7.0,5.0,9.0,1.0,3,10.0,2,1,0,0,1,0,0,0,0,0,0,1,83777.0
4.0,8.0,10.0,5.0,4.0,1.0,3,0.0,2,1,0,0,0,0,0,0,0,0,0,1,75184.0
7.0,12.0,7.0,5.0,7.0,1.0,3,8.0,12,1,1,0,1,1,1,1,1,0,1,0,75184.0
9.0,15.0,10.0,7.0,6.0,1.0,10,0.0,11,1,1,1,1,1,1,1,1,0,0,1,127500.0
8.0,13.0,4.0,1.0,2.0,0.0,6,10.0,3,0,1,1,0,0,0,0,0,0,0,1,50000.0
27.0,40.0,10.0,6.0,1.0,0.0,10,10.0,6,1,1,1,0,0,0,0,0,0,0,0,300000.0
18.0,23.0,18.0,4.0,5.0,1.0,6,2.0,4,0,1,1,0,0,0,0,1,0,0,1,125525.0
12.0,14.0,10.0,6.0,9.0,0.0,9,4.0,7,1,1,1,1,1,0,0,0,0,0,0,178343.0
5.0,15.0,5.0,5.0,7.0,0.0,10,0.0,6,1,1,0,1,0,0,0,0,0,0,1,150000.0
28.0,33.0,10.0,5.0,4.0,2.0,6,1.0,6,1,0,0,1,1,0,1,0,0,0,1,32222.0
1.0,10.0,10.0,5.0,1.0,0.0,10,10.0,8,1,1,0,0,1,0,1,0,0,0,0,40000.0
6.0,15.0,6.0,6.0,4.0,1.0,3,8.0,6,1,0,0,1,0,1,1,0,0,0,1,107406.0
9.0,35.0,10.0,3.0,2.0,1.0,10,10.0,8,1,1,0,1,0,0,0,1,0,0,1,69000.0
16.0,19.0,10.0,2.0,7.0,0.0,6,0.0,6,1,1,1,0,0,0,0,1,1,0,1,150000.0
5.0,8.0,5.0,5.0,6.0,0.0,10,10.0,8,1,1,0,1,1,1,0,0,0,0,1,72000.0
20.0,32.0,10.0,3.0,1.0,0.0,3,0.0,12,1,1,1,1,1,0,0,1,0,0,0,42962.0
11.0,16.0,11.0,5.0,3.0,0.0,6,1.0,8,0,1,1,1,1,0,0,0,0,1,1,256608.0
14.0,15.0,15.0,6.0,4.0,0.0,0,0.0,5,0,1,0,1,0,1,1,0,0,0,1,30770.0
28.0,31.0,28.0,7.0,3.0,0.0,5,1.0,3,0,0,0,0,0,0,0,0,0,1,1,193331.0
4.0,8.0,4.0,5.0,3.0,2.0,6,7.0,1,0,0,0,0,1,0,0,0,0,0,1,16557.0
20.0,30.0,30.0,3.0,4.0,0.0,6,0.0,19,1,1,1,1,1,1,1,0,0,0,0,108906.0
14.0,16.0,14.0,5.0,2.0,0.0,6,1.0,4,0,0,0,0,0,0,0,0,1,1,1,130000.0
8.0,14.0,8.0,5.0,4.0,0.0,1,0.0,3,0,0,0,1,0,0,0,0,0,0,1,141751.0
8.0,10.0,10.0,2.0,3.0,0.0,10,10.0,9,1,1,1,1,0,1,0,1,1,0,1,200000.0
10.0,13.0,10.0,6.0,4.0,0.0,8,0.0,2,0,0,1,0,0,1,0,0,0,0,0,100000.0
15.0,22.0,15.0,6.0,3.0,1.0,10,1.0,2,1,0,0,1,0,0,0,0,0,0,1,216000.0
10.0,15.0,10.0,5.0,9.0,0.0,10,1.0,4,1,0,0,0,1,0,0,0,0,0,1,180000.0
21.0,32.0,10.0,5.0,4.0,0.0,6,0.0,8,1,1,0,1,0,1,0,1,0,0,0,39640.0
6.0,10.0,10.0,5.0,5.0,2.0,10,10.0,3,1,0,0,0,0,0,0,0,0,0,1,120000.0
10.0,15.0,10.0,5.0,9.0,2.0,10,1.0,5,0,0,1,0,1,0,1,0,0,0,1,300000.0
3.0,7.0,3.0,5.0,2.0,2.0,6,1.0,1,1,0,0,0,0,0,0,0,0,0,1,14622.0
8.0,15.0,8.0,4.0,4.0,0.0,7,1.0,5,1,1,1,1,0,0,0,0,0,0,1,32222.0
11.0,13.0,10.0,5.0,2.0,0.0,9,0.0,5,1,1,0,0,0,0,0,0,0,0,0,101910.0
46.0,46.0,10.0,5.0,1.0,2.0,9,10.0,5,0,0,0,0,1,1,1,0,0,0,0,76433.0
2.0,7.0,3.0,3.0,2.0,1.0,6,0.0,7,1,1,1,1,0,1,0,0,0,0,0,21481.0
3.0,6.0,3.0,5.0,6.0,1.0,6,2.0,4,0,1,1,0,0,0,0,0,0,0,1,61457.0
6.0,12.0,6.0,3.0,5.0,2.0,5,9.0,7,1,1,0,1,0,0,0,0,1,1,1,53703.0
13.0,20.0,12.0,4.0,4.0,0.0,2,1.0,3,1,1,0,1,0,0,0,0,0,0,1,53703.0
37.0,46.0,35.0,5.0,4.0,0.0,9,8.0,0,0,0,0,0,0,0,0,0,0,0,1,56051.0
7.0,12.0,10.0,5.0,1.0,0.0,6,0.0,8,1,1,1,1,0,1,0,0,1,0,0,118147.0
21.0,25.0,21.0,5.0,2.0,0.0,10,0.0,5,0,1,0,1,0,1,0,0,0,0,1,95000.0
8.0,12.0,8.0,3.0,7.0,0.0,6,0.0,8,1,1,1,1,1,0,0,1,0,0,1,19946.0
4.0,9.0,10.0,6.0,3.0,0.0,2,10.0,8,1,1,1,1,0,0,1,0,0,0,1,62296.0
18.0,18.0,18.0,5.0,9.0,0.0,8,7.0,4,0,0,0,0,1,0,0,0,0,1,1,72295.0
10.0,15.0,10.0,5.0,6.0,1.0,10,1.0,3,0,0,0,1,0,1,0,0,0,0,1,120000.0
5.0,10.0,5.0,5.0,7.0,1.0,6,0.0,4,0,1,1,0,1,0,0,0,0,0,1,42962.0
4.0,5.0,10.0,6.0,5.0,2.0,6,9.0,4,0,0,0,0,0,0,1,0,0,0,1,28458.0
10.0,12.0,10.0,5.0,9.0,1.0,3,2.0,5,0,1,1,0,0,0,0,0,1,0,1,144998.0
4.0,7.0,4.0,5.0,7.0,0.0,10,0.0,3,1,0,1,0,0,0,0,0,0,0,1,110000.0
3.0,11.0,3.0,2.0,8.0,2.0,6,5.0,5,1,1,0,0,0,0,0,0,0,0,1,42095.0
16.0,20.0,20.0,3.0,8.0,1.0,9,10.0,4,1,1,0,0,1,1,0,0,0,0,1,114649.0
12.0,20.0,20.0,5.0,9.0,2.0,10,1.0,10,1,0,1,1,1,1,1,1,0,0,1,429369.0
4.0,9.0,4.0,6.0,7.0,0.0,8,2.0,4,1,1,1,0,0,0,0,0,0,0,1,17476.0
4.0,10.0,6.0,5.0,4.0,0.0,6,1.0,10,1,1,1,1,1,0,0,0,0,1,1,91295.0
6.0,10.0,10.0,6.0,3.0,2.0,5,8.0,5,1,1,0,0,0,0,1,0,0,0,1,59073.0
7.0,10.0,7.0,2.0,9.0,0.0,9,10.0,8,1,0,0,1,0,1,1,0,0,0,1,68789.0
6.0,7.0,18.0,5.0,8.0,0.0,10,2.0,4,0,1,1,1,0,0,0,0,0,0,1,132000.0
3.0,8.0,3.0,6.0,7.0,0.0,8,1.0,5,0,1,1,0,0,1,0,0,0,0,1,28880.0
1.0,5.0,1.0,6.0,9.0,1.0,6,10.0,6,0,1,1,0,1,0,0,0,0,0,1,14822.0
1.0,8.0,2.0,2.0,3.0,1.0,6,1.0,6,0,1,0,1,1,0,0,1,0,0,1,20407.0
14.0,15.0,10.0,5.0,4.0,0.0,10,1.0,2,0,1,0,0,0,0,0,0,0,0,1,165000.0
5.0,10.0,7.0,5.0,4.0,0.0,1,1.0,3,0,0,0,1,0,1,0,0,0,0,1,65424.0
2.0,4.0,2.0,3.0,4.0,1.0,6,2.0,6,0,1,1,0,1,1,0,0,0,0,1,38154.0
3.0,8.0,3.0,6.0,7.0,1.0,1,10.0,4,1,0,0,0,0,0,1,0,0,0,1,90866.0
10.0,18.0,10.0,6.0,5.0,0.0,2,1.0,1,0,0,0,0,1,0,0,0,0,0,1,62403.0
5.0,10.0,10.0,5.0,3.0,0.0,6,0.0,6,0,1,1,1,0,0,0,0,1,0,1,95796.0
25.0,30.0,25.0,5.0,5.0,0.0,10,8.0,5,0,1,1,0,0,1,1,0,0,0,1,120000.0
3.0,3.0,10.0,7.0,5.0,1.0,10,10.0,7,1,0,0,1,0,1,1,0,0,0,1,125000.0
26.0,26.0,26.0,3.0,4.0,1.0,10,9.0,2,1,0,0,0,0,0,0,0,0,0,1,215000.0
8.0,13.0,10.0,3.0,5.0,1.0,10,10.0,7,1,1,0,0,1,0,1,0,0,0,1,80000.0
12.0,16.0,13.0,6.0,5.0,1.0,6,0.0,1,0,0,0,0,1,0,0,0,0,0,1,65907.0
11.0,30.0,3.0,7.0,3.0,1.0,3,1.0,9,0,1,1,1,0,1,1,0,0,0,1,85925.0
25.0,35.0,25.0,7.0,9.0,1.0,9,1.0,3,0,0,0,1,0,1,0,0,0,0,1,78089.0
15.0,20.0,15.0,6.0,5.0,0.0,10,0.0,3,1,1,1,0,0,0,0,0,0,0,1,200000.0
5.0,6.0,6.0,2.0,3.0,0.0,8,1.0,4,0,1,0,0,1,0,0,0,1,0,1,37026.0
10.0,16.0,10.0,5.0,2.0,0.0,3,1.0,11,0,1,0,0,1,0,0,0,1,1,1,88619.0
0.0,7.0,10.0,5.0,4.0,1.0,3,10.0,4,1,1,0,0,0,0,0,0,0,0,0,25777.0
2.0,3.0,10.0,6.0,5.0,0.0,8,10.0,2,0,0,0,0,0,1,0,0,0,0,1,12000.0
30.0,42.0,10.0,6.0,1.0,1.0,6,0.0,7,0,1,0,1,0,0,0,1,0,1,0,32222.0
23.0,28.0,25.0,6.0,7.0,2.0,8,8.0,9,0,1,1,0,1,1,1,0,0,0,1,45000.0
30.0,30.0,10.0,5.0,7.0,1.0,6,1.0,2,1,0,1,0,0,0,0,0,0,0,0,182591.0
30.0,40.0,10.0,7.0,9.0,2.0,6,10.0,2,0,0,0,1,0,0,0,0,0,0,1,28011.0
11.0,25.0,11.0,6.0,4.0,1.0,5,6.0,4,1,1,0,0,0,0,0,0,0,0,1,118147.0
30.0,40.0,30.0,5.0,6.0,2.0,10,0.0,7,0,1,1,1,1,0,0,0,0,0,1,183000.0
0.0,2.0,1.0,6.0,2.0,1.0,6,0.0,2,1,1,0,0,0,0,0,0,0,0,1,28640.0
7.0,14.0,7.0,5.0,4.0,1.0,9,7.0,2,0,0,0,0,1,0,0,0,0,0,1,57325.0
6.0,12.0,6.0,5.0,4.0,0.0,1,0.0,4,0,1,1,0,0,0,0,0,0,1,1,112674.0
13.0,20.0,12.0,3.0,5.0,2.0,10,0.0,8,0,1,1,1,0,0,0,1,0,1,1,180000.0
15.0,25.0,25.0,5.0,5.0,0.0,10,0.0,9,1,1,1,1,0,0,0,0,1,1,1,200000.0
22.0,30.0,23.0,5.0,9.0,1.0,10,6.0,5,1,1,0,1,0,1,0,0,1,0,1,172000.0
3.0,10.0,10.0,5.0,2.0,2.0,6,0.0,5,0,1,1,0,1,0,1,0,1,0,1,16557.0
30.0,32.0,30.0,6.0,8.0,0.0,10,1.0,2,0,0,0,0,1,0,0,0,0,0,1,460000.0
15.0,22.0,15.0,2.0,4.0,0.0,6,1.0,10,0,1,1,1,1,1,0,1,1,0,1,78000.0
15.0,27.0,15.0,6.0,5.0,0.0,10,1.0,7,1,1,1,1,0,0,0,1,0,0,1,200000.0
28.0,40.0,10.0,6.0,5.0,0.0,3,1.0,4,1,0,0,1,0,0,0,1,0,0,0,107406.0
9.0,12.0,9.0,6.0,6.0,1.0,6,0.0,3,0,1,0,1,0,0,0,1,0,0,1,19070.0
3.0,11.0,3.0,5.0,9.0,1.0,2,0.0,6,1,1,1,1,1,0,0,0,0,0,1,30074.0
16.0,21.0,16.0,6.0,5.0,1.0,1,9.0,4,1,0,0,0,0,0,1,0,0,0,1,109039.0
4.0,9.0,4.0,6.0,7.0,1.0,6,3.0,3,1,0,0,1,1,0,0,0,0,0,1,66592.0
20.0,25.0,21.0,6.0,7.0,1.0,6,0.0,7,0,1,1,1,0,1,0,0,0,0,1,69369.0
5.0,8.0,5.0,5.0,4.0,0.0,6,0.0,10,1,1,1,0,1,1,0,1,0,0,1,15319.0
8.0,11.0,8.0,5.0,5.0,0.0,6,6.0,1,0,1,0,0,0,0,0,0,0,0,1,86613.0
3.0,8.0,10.0,2.0,4.0,0.0,3,0.0,5,0,1,1,0,1,1,0,0,0,0,0,36088.0
16.0,17.0,10.0,5.0,2.0,0.0,10,0.0,5,0,1,0,1,0,1,0,0,0,0,1,140000.0
4.0,10.0,10.0,3.0,5.0,0.0,10,10.0,11,1,1,0,1,0,0,1,0,1,1,1,230000.0
2.0,5.0,2.0,5.0,9.0,1.0,4,0.0,5,0,1,1,1,1,0,0,0,0,0,1,10767.0
1.0,10.0,1.0,5.0,7.0,2.0,5,8.0,12,1,1,1,1,1,0,1,0,0,1,0,42962.0
9.0,15.0,9.0,5.0,5.0,0.0,3,0.0,2,0,0,0,1,1,0,0,0,0,0,1,88073.0
5.0,8.0,8.0,6.0,4.0,1.0,2,0.0,14,1,1,1,1,1,0,1,1,0,0,1,40814.0
30.0,36.0,30.0,6.0,7.0,1.0,10,10.0,7,0,1,0,1,1,0,0,1,0,0,1,170000.0
41.0,49.0,45.0,6.0,2.0,0.0,1,10.0,2,1,0,0,0,0,0,0,0,0,0,1,36346.0
10.0,15.0,10.0,6.0,4.0,2.0,6,10.0,1,0,0,0,0,0,0,0,0,0,0,1,21481.0
12.0,16.0,12.0,5.0,5.0,2.0,4,1.0,2,0,1,0,0,1,0,0,0,0,0,1,29909.0
3.0,6.0,3.0,6.0,4.0,1.0,1,0.0,6,1,1,1,1,0,0,0,0,1,0,1,79962.0
3.0,9.0,10.0,5.0,7.0,2.0,3,9.0,4,1,1,1,0,0,0,0,0,0,0,1,59073.0
12.0,17.0,12.0,3.0,7.0,1.0,6,2.0,3,0,1,1,0,0,0,0,0,0,0,1,94952.0
14.0,20.0,14.0,5.0,5.0,1.0,6,0.0,6,0,1,1,1,1,0,0,0,0,0,0,115874.0
2.0,4.0,2.0,3.0,2.0,2.0,9,0.0,4,0,1,0,1,0,1,0,0,0,0,1,29299.0
20.0,25.0,18.0,7.0,6.0,1.0,6,1.0,7,1,0,0,0,1,0,1,0,0,1,1,160440.0
12.0,22.0,12.0,6.0,4.0,0.0,10,4.0,3,1,0,0,1,0,0,0,0,0,0,1,180000.0
20.0,25.0,10.0,5.0,9.0,2.0,5,4.0,7,1,1,0,1,0,0,0,1,0,0,1,86785.0
13.0,15.0,10.0,5.0,6.0,1.0,6,2.0,5,1,1,1,0,0,0,0,0,0,0,1,36702.0
8.0,10.0,10.0,5.0,9.0,2.0,4,10.0,18,1,1,1,1,0,0,1,1,0,1,1,23927.0
5.0,10.0,5.0,5.0,3.0,0.0,6,0.0,5,0,1,1,1,0,0,0,1,0,0,1,15140.0
5.0,10.0,10.0,5.0,2.0,0.0,7,0.0,8,0,1,1,1,0,0,0,1,0,1,1,36518.0
5.0,9.0,5.0,5.0,2.0,0.0,1,0.0,5,0,1,0,1,0,0,0,0,0,0,1,101770.0
41.0,41.0,41.0,3.0,5.0,0.0,10,10.0,8,1,1,0,1,0,0,1,1,0,0,0,130000.0
8.0,12.0,10.0,6.0,4.0,2.0,6,10.0,7,1,1,0,1,0,0,0,0,1,0,1,99900.0
9.0,9.0,10.0,3.0,4.0,1.0,10,10.0,8,1,1,1,1,0,0,1,0,0,0,1,120000.0
13.0,13.0,13.0,6.0,9.0,0.0,10,10.0,12,0,1,1,1,1,1,1,0,0,1,1,346000.0
14.0,25.0,14.0,4.0,2.0,2.0,3,2.0,7,0,1,0,0,0,1,1,1,0,0,1,48333.0
9.0,14.0,10.0,5.0,2.0,0.0,1,1.0,5,0,1,1,1,0,0,0,0,0,0,1,99939.0
24.0,27.0,25.0,5.0,5.0,1.0,3,0.0,3,0,0,0,1,1,0,0,1,0,0,0,64444.0
6.0,10.0,9.0,6.0,4.0,1.0,6,1.0,7,1,1,1,1,0,0,1,0,1,0,1,115762.0
4.0,9.0,4.0,6.0,4.0,1.0,6,1.0,9,1,1,1,1,1,0,0,0,1,0,1,69257.0
7.0,13.0,7.0,2.0,5.0,1.0,3,0.0,7,0,1,1,1,1,0,0,0,0,1,1,65518.0
12.0,20.0,25.0,7.0,3.0,2.0,2,0.0,3,0,1,0,1,1,0,0,0,0,0,1,37592.0
16.0,20.0,16.0,6.0,4.0,0.0,6,2.0,3,0,1,1,0,0,0,0,0,0,0,0,148479.0
12.0,12.0,13.0,5.0,6.0,0.0,10,10.0,8,0,1,1,0,0,0,0,0,0,0,1,240000.0
2.0,8.0,3.0,5.0,4.0,1.0,10,0.0,5,1,1,0,1,0,1,0,0,0,0,1,88000.0
2.0,15.0,10.0,6.0,6.0,2.0,9,10.0,4,1,1,0,0,0,0,0,0,0,1,1,70700.0
5.0,9.0,5.0,5.0,7.0,1.0,6,1.0,1,0,0,0,0,1,0,0,0,0,0,1,23844.0
1.0,4.0,10.0,3.0,4.0,2.0,10,1.0,6,0,1,1,1,1,1,0,0,0,0,0,60000.0
5.0,10.0,10.0,3.0,8.0,0.0,1,10.0,5,1,0,0,0,1,0,0,0,1,0,1,363465.0
3.0,6.0,3.0,3.0,3.0,0.0,8,0.0,5,0,1,0,1,0,0,0,0,0,0,1,42000.0
10.0,13.0,13.0,3.0,5.0,1.0,3,0.0,6,0,1,1,1,1,0,0,0,0,0,1,62296.0
34.0,43.0,10.0,6.0,1.0,0.0,10,10.0,1,1,0,0,0,0,0,0,0,0,0,0,240000.0
5.0,10.0,10.0,5.0,1.0,1.0,1,10.0,4,1,0,1,0,0,0,0,0,0,1,0,18173.0
3.0,10.0,10.0,5.0,9.0,1.0,6,10.0,7,1,1,0,1,0,0,0,1,0,0,1,11791.0
5.0,6.0,5.0,6.0,2.0,2.0,9,1.0,2,1,0,0,0,0,0,0,0,0,1,1,127388.0
12.0,12.0,14.0,5.0,7.0,1.0,6,1.0,4,0,1,0,1,0,1,0,0,0,0,1,138324.0
11.0,15.0,15.0,5.0,7.0,1.0,6,7.0,2,0,0,0,0,0,0,0,0,0,0,1,150413.0
11.0,16.0,10.0,5.0,9.0,1.0,10,0.0,5,0,1,0,0,0,1,0,0,0,0,1,135000.0
10.0,12.0,10.0,6.0,5.0,1.0,2,1.0,3,0,0,0,0,0,0,0,1,0,0,1,113851.0
23.0,25.0,23.0,3.0,5.0,0.0,1,1.0,1,0,0,0,0,0,0,0,0,0,0,1,174463.0
5.0,10.0,5.0,5.0,3.0,2.0,0,1.0,11,1,1,0,1,1,1,1,1,0,0,1,16605.0
6.0,10.0,6.0,4.0,3.0,0.0,3,1.0,4,0,1,1,0,0,0,0,0,1,0,1,75184.0
26.0,40.0,33.0,5.0,7.0,1.0,6,10.0,7,1,1,1,1,0,0,0,0,0,0,1,75332.0
16.0,18.0,16.0,3.0,5.0,2.0,10,0.0,3,0,1,0,0,0,0,0,1,0,0,1,51000.0
15.0,20.0,16.0,5.0,9.0,0.0,6,4.0,2,0,0,0,0,0,0,0,0,0,0,1,166480.0
17.0,19.0,17.0,4.0,5.0,0.0,0,0.0,7,0,1,1,1,0,1,0,0,0,0,1,82000.0
11.0,14.0,11.0,5.0,6.0,0.0,4,1.0,6,0,0,1,1,1,1,0,0,0,0,1,69388.0
24.0,29.0,29.0,6.0,2.0,0.0,3,0.0,8,1,1,0,1,1,0,0,1,0,0,0,161109.0
10.0,25.0,10.0,6.0,5.0,1.0,6,5.0,3,1,0,0,1,0,0,0,0,0,0,1,38666.0
15.0,17.0,10.0,3.0,7.0,0.0,0,1.0,3,0,1,0,0,0,1,0,0,0,0,1,96227.0
4.0,18.0,5.0,6.0,4.0,2.0,6,10.0,8,0,1,0,1,1,1,0,1,0,0,1,112309.0
8.0,14.0,12.0,6.0,8.0,0.0,3,4.0,4,1,0,0,0,1,0,0,0,0,1,1,80555.0
10.0,15.0,10.0,6.0,2.0,0.0,2,0.0,8,1,1,1,1,0,0,0,1,1,0,1,68740.0
34.0,36.0,10.0,5.0,1.0,1.0,1,10.0,14,1,1,1,1,0,1,1,0,0,0,0,145386.0
3.0,10.0,3.0,5.0,8.0,0.0,9,1.0,5,0,0,0,1,0,1,0,0,1,0,1,67516.0
5.0,17.0,5.0,2.0,4.0,0.0,6,0.0,15,1,1,1,1,1,1,0,1,0,0,1,76373.0
2.0,7.0,2.0,3.0,7.0,1.0,3,10.0,9,1,1,1,1,1,0,0,0,0,0,0,15466.0
14.0,16.0,15.0,6.0,4.0,1.0,1,8.0,4,0,1,0,1,0,1,0,0,0,0,0,130847.0
3.0,10.0,3.0,6.0,5.0,1.0,6,0.0,6,1,1,0,1,0,0,1,0,0,0,1,60769.0
0.0,1.0,10.0,6.0,5.0,2.0,6,10.0,3,1,0,0,1,0,0,0,0,0,0,1,21481.0
6.0,12.0,6.0,6.0,6.0,1.0,5,1.0,4,0,0,1,0,1,0,0,0,0,0,1,93959.0
8.0,13.0,8.0,5.0,4.0,0.0,6,1.0,7,1,1,1,1,1,0,0,0,0,0,1,34748.0
16.0,20.0,20.0,3.0,4.0,1.0,6,10.0,8,1,1,1,1,0,1,0,0,0,0,1,40000.0
1.0,4.0,1.0,4.0,7.0,1.0,7,0.0,4,0,1,0,1,1,0,0,0,0,0,1,21481.0
15.0,20.0,15.0,5.0,4.0,1.0,7,0.0,3,1,0,1,1,0,0,0,0,0,0,1,42962.0
20.0,25.0,20.0,6.0,6.0,1.0,6,1.0,8,1,0,0,1,1,0,0,0,1,1,0,66769.0
1.0,8.0,10.0,5.0,1.0,2.0,2,10.0,4,0,1,1,0,0,0,0,0,0,0,0,10741.0
2.0,12.0,2.0,6.0,9.0,1.0,10,8.0,4,1,0,0,1,1,0,1,0,0,0,1,85000.0
3.0,4.0,4.0,5.0,9.0,0.0,0,0.0,5,1,1,1,1,1,0,0,0,0,0,1,18649.0
23.0,26.0,10.0,7.0,1.0,1.0,6,0.0,1,0,0,0,0,0,0,0,0,0,1,0,330330.0
1.0,5.0,1.0,5.0,3.0,1.0,4,1.0,9,1,1,1,1,0,1,0,0,0,1,1,11963.0
6.0,9.0,10.0,5.0,8.0,1.0,10,2.0,3,0,1,1,0,0,0,0,0,0,0,1,135000.0
12.0,15.0,12.0,5.0,3.0,1.0,6,0.0,10,1,1,1,1,0,1,0,1,0,0,1,62763.0
19.0,24.0,10.0,5.0,1.0,0.0,9,0.0,1,1,0,0,0,0,0,0,0,0,0,0,89172.0
2.0,4.0,2.0,4.0,5.0,2.0,8,1.0,7,1,1,0,1,1,0,1,0,0,0,1,10589.0
28.0,41.0,10.0,5.0,1.0,0.0,9,0.0,4,0,1,1,0,0,0,0,0,0,1,0,101910.0
7.0,8.0,7.0,3.0,7.0,0.0,8,2.0,4,0,1,1,0,1,0,0,0,0,0,1,72038.0
23.0,30.0,23.0,5.0,8.0,0.0,1,1.0,7,1,0,0,1,0,0,0,0,1,1,1,327118.0
12.0,20.0,15.0,6.0,5.0,1.0,6,10.0,8,1,1,1,0,1,1,0,0,0,0,1,61866.0
8.0,14.0,10.0,5.0,6.0,1.0,5,2.0,3,0,1,1,0,0,0,0,0,0,0,1,96666.0
35.0,38.0,10.0,5.0,6.0,2.0,6,8.0,1,0,0,0,0,1,0,0,0,0,0,1,64762.0
5.0,10.0,15.0,3.0,3.0,1.0,6,10.0,1,0,0,0,0,1,0,0,0,0,0,1,26852.0
5.0,6.0,5.0,5.0,3.0,0.0,6,1.0,2,1,0,1,0,0,0,0,0,0,0,0,59391.0
7.0,20.0,10.0,7.0,4.0,0.0,9,10.0,5,1,0,0,1,0,0,0,0,0,0,1,104458.0
8.0,16.0,8.0,5.0,7.0,1.0,7,2.0,3,0,1,1,0,0,0,0,0,0,0,1,67839.0
4.0,5.0,10.0,5.0,6.0,0.0,10,0.0,3,0,1,0,1,0,0,0,0,0,0,1,96000.0
0.0,3.0,10.0,3.0,4.0,0.0,6,0.0,4,0,1,1,0,0,0,0,0,1,0,0,16630.0
26.0,40.0,25.0,7.0,4.0,0.0,10,0.0,8,0,1,1,1,1,1,0,1,0,0,1,170000.0
0.0,3.0,10.0,6.0,4.0,0.0,8,10.0,3,0,1,0,0,0,0,0,0,0,0,0,49368.0
2.0,9.0,2.0,5.0,4.0,2.0,10,10.0,8,1,1,0,0,0,0,1,0,0,0,1,110000.0
5.0,5.0,8.0,6.0,8.0,0.0,10,0.0,1,0,0,0,0,0,0,0,0,0,0,1,192000.0
40.0,42.0,40.0,5.0,6.0,2.0,9,2.0,3,1,0,0,0,1,0,0,0,0,0,1,50955.0
6.0,6.0,10.0,3.0,1.0,0.0,6,10.0,3,0,1,0,0,0,0,0,1,0,0,0,130000.0
6.0,8.0,6.0,5.0,5.0,0.0,10,3.0,5,1,1,0,1,0,0,0,0,0,0,1,140000.0
9.0,12.0,10.0,7.0,7.0,1.0,9,9.0,8,1,1,1,0,0,0,1,0,1,1,1,112866.0
21.0,24.0,22.0,5.0,5.0,0.0,10,0.0,13,1,1,0,1,0,1,1,1,0,0,1,140000.0
5.0,9.0,5.0,5.0,5.0,0.0,4,1.0,3,1,0,0,1,0,0,0,0,1,0,1,34694.0
3.0,4.0,10.0,6.0,6.0,1.0,6,2.0,4,0,1,1,0,0,0,0,0,0,0,1,99842.0
31.0,37.0,33.0,6.0,5.0,2.0,6,0.0,10,1,1,0,1,0,0,1,0,0,1,1,99099.0
11.0,22.0,10.0,3.0,7.0,1.0,1,0.0,9,1,1,1,1,0,0,0,0,0,1,1,87231.0
6.0,6.0,13.0,5.0,5.0,1.0,10,0.0,7,0,1,0,1,0,1,0,0,0,0,1,131000.0
10.0,30.0,10.0,3.0,6.0,1.0,10,8.0,10,1,1,0,1,1,0,1,0,0,0,1,62000.0
10.0,15.0,10.0,5.0,4.0,0.0,6,2.0,4,0,1,0,0,1,0,0,1,0,0,1,36000.0
3.0,14.0,3.0,1.0,2.0,1.0,5,0.0,3,0,1,1,0,0,0,0,0,0,0,1,36088.0
15.0,21.0,15.0,6.0,5.0,0.0,3,1.0,6,0,1,1,1,0,0,0,0,0,0,1,92692.0
10.0,18.0,10.0,6.0,7.0,0.0,6,10.0,7,1,1,1,1,0,0,0,0,0,0,0,79189.0
4.0,4.0,4.0,5.0,7.0,1.0,10,5.0,2,0,0,1,0,0,0,0,0,0,1,1,105000.0
5.0,8.0,10.0,5.0,4.0,0.0,10,1.0,3,1,0,0,0,0,0,1,0,0,0,1,125000.0
20.0,25.0,20.0,5.0,9.0,2.0,10,9.0,4,1,0,0,0,0,0,1,0,0,0,1,475000.0
21.0,44.0,10.0,5.0,5.0,2.0,10,8.0,2,0,0,0,1,0,1,0,0,0,0,1,105000.0
30.0,37.0,42.0,5.0,7.0,0.0,10,0.0,8,1,1,1,1,1,0,0,0,0,0,1,130000.0
5.0,7.0,10.0,6.0,5.0,1.0,9,3.0,4,1,1,1,0,0,0,0,0,0,0,1,82802.0
10.0,13.0,10.0,5.0,6.0,0.0,0,0.0,5,1,1,1,1,0,0,0,0,0,0,1,199703.0
10.0,16.0,10.0,5.0,8.0,0.0,1,0.0,3,0,1,0,1,0,1,0,0,0,0,1,67968.0
3.0,4.0,3.0,3.0,4.0,0.0,7,1.0,10,1,1,1,1,0,1,0,0,0,0,1,27926.0
3.0,11.0,5.0,5.0,7.0,0.0,6,10.0,3,0,0,0,0,0,0,1,0,0,1,1,51624.0
6.0,11.0,6.0,6.0,7.0,1.0,2,7.0,2,0,0,0,0,1,0,0,0,0,0,1,45111.0
21.0,21.0,21.0,1.0,6.0,1.0,1,1.0,8,0,1,1,1,1,0,0,0,1,1,1,109039.0
5.0,10.0,5.0,5.0,2.0,0.0,6,0.0,4,0,1,0,1,0,0,0,1,0,0,1,42069.0
12.0,16.0,12.0,5.0,4.0,1.0,9,2.0,3,0,1,1,0,0,0,0,0,0,0,1,80254.0
40.0,45.0,43.0,6.0,4.0,1.0,6,10.0,10,1,1,0,1,0,1,0,1,0,0,0,105846.0
13.0,22.0,10.0,5.0,7.0,1.0,10,9.0,4,0,0,0,0,0,0,0,0,0,1,1,140000.0
16.0,16.0,16.0,2.0,6.0,1.0,5,0.0,3,0,0,1,0,0,1,0,0,0,0,0,161109.0
10.0,18.0,10.0,5.0,9.0,1.0,9,10.0,3,0,0,0,0,0,0,0,0,0,0,1,121574.0
3.0,10.0,25.0,5.0,6.0,1.0,6,8.0,5,1,0,0,0,0,0,1,0,0,0,1,93591.0
21.0,28.0,10.0,6.0,4.0,1.0,6,0.0,6,1,1,1,1,0,0,0,0,1,0,0,111417.0
20.0,42.0,10.0,6.0,9.0,0.0,3,8.0,4,1,0,0,0,0,0,1,0,0,0,1,96666.0
0.0,4.0,10.0,5.0,9.0,1.0,3,5.0,4,1,0,0,1,0,0,0,0,0,0,1,49407.0
24.0,35.0,10.0,5.0,3.0,1.0,10,6.0,3,1,0,0,0,0,0,0,0,0,0,1,250000.0
26.0,37.0,10.0,5.0,1.0,0.0,3,0.0,4,0,1,0,0,0,0,0,1,0,0,0,42962.0
20.0,27.0,20.0,5.0,7.0,0.0,10,2.0,5,0,1,1,0,0,0,0,1,0,0,1,120000.0
29.0,29.0,29.0,6.0,4.0,0.0,10,1.0,9,1,1,1,1,0,0,0,1,1,0,1,184000.0
12.0,15.0,12.0,5.0,9.0,1.0,6,1.0,6,0,1,1,0,0,1,0,0,0,0,1,180000.0
3.0,6.0,10.0,5.0,4.0,1.0,10,0.0,5,1,1,0,1,1,0,0,1,0,0,1,70000.0
11.0,17.0,11.0,5.0,5.0,1.0,6,1.0,4,1,0,1,1,0,1,0,0,0,0,1,59391.0
23.0,26.0,23.0,5.0,5.0,0.0,2,1.0,8,0,1,1,1,0,1,0,0,0,1,1,75184.0
2.0,3.0,2.0,5.0,5.0,1.0,6,3.0,5,1,0,0,0,0,0,1,0,0,0,1,10951.0
6.0,7.0,6.0,3.0,5.0,1.0,6,1.0,6,0,1,0,1,0,0,0,1,0,0,1,51656.0
17.0,17.0,17.0,3.0,7.0,0.0,10,0.0,4,0,1,1,0,0,1,0,0,0,0,1,290000.0
10.0,20.0,10.0,4.0,4.0,1.0,2,0.0,9,1,1,1,1,1,0,0,0,1,0,1,45111.0
8.0,8.0,10.0,6.0,8.0,1.0,8,1.0,2,0,0,0,1,1,0,0,0,0,0,1,80000.0
7.0,15.0,7.0,7.0,5.0,1.0,10,3.0,2,1,0,0,0,0,0,0,0,0,0,1,118000.0
27.0,32.0,10.0,7.0,6.0,1.0,9,10.0,4,1,1,0,0,0,0,1,0,0,0,1,140127.0
1.0,5.0,1.0,3.0,8.0,2.0,10,10.0,5,1,0,0,1,1,0,0,0,0,0,0,30000.0
6.0,14.0,6.0,5.0,4.0,0.0,10,10.0,5,1,0,1,1,0,0,0,0,0,0,1,150000.0
2.0,3.0,13.0,5.0,3.0,0.0,10,1.0,3,1,0,0,1,0,0,0,0,0,0,1,110000.0
12.0,19.0,10.0,6.0,1.0,0.0,6,0.0,6,0,1,0,1,1,0,0,0,0,0,0,70000.0
3.0,32.0,24.0,6.0,8.0,1.0,9,0.0,5,0,1,1,1,0,0,0,0,0,0,1,123566.0
3.0,7.0,2.0,7.0,5.0,1.0,10,1.0,4,1,0,0,0,0,0,0,0,0,0,1,125000.0
3.0,7.0,3.0,5.0,9.0,1.0,10,2.0,3,1,1,0,0,0,0,0,0,0,0,1,124000.0
0.0,5.0,1.0,5.0,5.0,2.0,6,0.0,13,0,1,0,1,1,1,1,0,1,1,1,68987.0
6.0,10.0,10.0,6.0,4.0,1.0,3,1.0,4,1,0,0,0,1,0,0,0,1,0,0,42962.0
17.0,21.0,17.0,6.0,4.0,2.0,6,1.0,6,0,1,1,1,0,1,0,0,0,0,1,86401.0
10.0,15.0,10.0,5.0,4.0,0.0,10,7.0,1,0,0,0,0,0,0,0,0,0,0,1,113505.0
2.0,7.0,10.0,6.0,4.0,0.0,10,1.0,4,0,1,1,0,0,1,0,0,0,0,1,112200.0
16.0,28.0,17.0,2.0,4.0,0.0,7,6.0,3,0,1,1,0,0,0,0,0,0,0,1,107406.0
8.0,7.0,8.0,6.0,5.0,0.0,6,1.0,1,0,0,0,0,0,0,0,0,0,0,1,81629.0
8.0,19.0,8.0,6.0,6.0,1.0,3,6.0,9,1,0,0,0,0,0,1,0,1,1,1,98814.0
8.0,16.0,10.0,5.0,7.0,1.0,6,10.0,2,1,0,0,0,0,1,0,0,0,0,1,101940.0
3.0,5.0,3.0,7.0,5.0,0.0,6,1.0,5,1,0,0,1,0,0,0,0,1,0,1,55000.0
23.0,32.0,10.0,6.0,5.0,1.0,6,9.0,3,1,0,0,0,0,1,0,0,0,0,1,85925.0
25.0,25.0,10.0,5.0,1.0,0.0,10,0.0,1,0,1,0,0,0,0,0,0,0,0,0,75000.0
5.0,10.0,10.0,6.0,7.0,1.0,6,10.0,17,1,1,1,1,1,0,0,1,0,0,1,32222.0
10.0,10.0,10.0,6.0,2.0,2.0,6,10.0,5,1,1,0,1,0,1,0,0,0,0,1,59073.0
3.0,8.0,3.0,6.0,7.0,1.0,6,1.0,3,0,0,0,1,1,0,0,0,0,0,1,42962.0
4.0,7.0,4.0,5.0,9.0,0.0,10,4.0,2,1,0,0,1,0,0,0,0,0,0,1,92000.0
28.0,33.0,28.0,5.0,4.0,0.0,10,0.0,9,1,1,0,1,1,0,0,0,1,0,1,175000.0
2.0,7.0,2.0,4.0,5.0,0.0,1,0.0,3,0,1,0,0,1,0,0,0,0,0,1,54493.0
4.0,11.0,4.0,7.0,9.0,0.0,10,10.0,6,1,1,1,1,0,1,0,0,0,0,1,40000.0
8.0,12.0,9.0,2.0,7.0,0.0,3,8.0,5,0,0,0,0,0,1,0,0,0,0,1,52629.0
5.0,6.0,5.0,6.0,7.0,0.0,6,1.0,2,1,0,0,1,0,0,0,0,0,0,1,48000.0
49.0,51.0,10.0,3.0,6.0,2.0,1,9.0,7,1,1,0,1,1,0,0,0,0,0,1,101770.0
4.0,4.0,4.0,5.0,7.0,2.0,4,0.0,5,0,1,0,0,1,0,0,0,1,1,1,22731.0
3.0,7.0,10.0,5.0,4.0,0.0,1,1.0,2,0,0,0,0,0,0,0,0,0,0,1,72693.0
6.0,15.0,6.0,6.0,7.0,0.0,10,10.0,3,0,0,0,1,0,0,0,0,0,0,1,80000.0
11.0,15.0,10.0,6.0,5.0,0.0,2,0.0,3,0,1,0,1,0,0,0,0,0,0,1,69814.0
4.0,8.0,4.0,5.0,4.0,0.0,8,4.0,4,1,0,0,1,0,0,0,0,0,0,1,35792.0
4.0,10.0,10.0,5.0,5.0,2.0,4,10.0,4,1,0,0,0,1,0,1,0,0,0,1,29909.0
12.0,25.0,11.0,7.0,2.0,1.0,0,10.0,5,1,0,0,1,0,0,0,0,0,1,1,49233.0
2.0,8.0,2.0,6.0,9.0,0.0,10,1.0,6,1,0,1,0,0,0,0,0,0,1,1,250000.0
10.0,17.0,10.0,6.0,9.0,0.0,6,1.0,6,0,1,1,0,1,0,0,0,1,1,1,50588.0
6.0,11.0,6.0,3.0,9.0,1.0,6,0.0,6,1,1,1,1,1,0,0,0,0,0,1,52652.0
3.0,5.0,3.0,3.0,3.0,2.0,6,9.0,3,1,1,0,0,0,0,1,0,0,0,1,39640.0
5.0,10.0,10.0,6.0,8.0,2.0,10,10.0,4,1,1,1,0,0,0,0,0,0,0,1,165000.0
14.0,20.0,10.0,5.0,8.0,0.0,10,8.0,12,1,1,1,1,1,1,0,0,0,0,1,150000.0
8.0,18.0,8.0,5.0,4.0,0.0,6,1.0,8,1,1,1,1,1,0,0,0,0,0,1,30074.0
4.0,5.0,10.0,6.0,4.0,0.0,8,1.0,2,0,1,1,0,0,0,0,0,0,0,1,60000.0
10.0,13.0,10.0,6.0,4.0,1.0,6,1.0,6,0,1,1,1,1,0,0,0,0,0,1,51555.0
16.0,16.0,10.0,7.0,6.0,1.0,2,10.0,3,0,0,0,0,0,0,0,0,0,0,1,30074.0
3.0,11.0,3.0,5.0,9.0,2.0,4,0.0,7,1,1,1,1,0,0,0,0,0,0,1,27516.0
12.0,21.0,10.0,5.0,5.0,1.0,9,8.0,5,0,1,0,1,0,1,0,0,0,0,1,119745.0
12.0,17.0,10.0,6.0,8.0,1.0,2,1.0,5,0,0,0,0,1,0,1,0,0,1,1,53703.0
29.0,50.0,10.0,7.0,2.0,0.0,10,8.0,2,0,0,0,0,0,0,1,0,0,0,0,40000.0
24.0,33.0,10.0,6.0,5.0,0.0,10,6.0,3,0,1,1,0,0,1,0,0,0,0,1,276000.0
15.0,15.0,10.0,6.0,5.0,0.0,8,0.0,6,0,1,1,1,0,0,1,1,0,0,1,80000.0
24.0,33.0,24.0,6.0,7.0,0.0,1,1.0,6,1,1,0,0,1,1,0,0,0,0,1,109039.0
2.0,7.0,2.0,2.0,4.0,2.0,6,10.0,10,1,1,0,1,0,0,1,0,0,0,0,26852.0
10.0,20.0,11.0,5.0,4.0,1.0,6,1.0,8,1,1,1,1,0,1,0,0,0,0,1,63799.0
10.0,14.0,10.0,3.0,5.0,1.0,7,6.0,4,1,1,0,1,0,0,0,0,0,0,1,59073.0
25.0,30.0,25.0,6.0,7.0,1.0,2,10.0,14,1,1,0,1,1,0,1,1,0,0,1,75184.0
5.0,9.0,10.0,5.0,7.0,0.0,6,1.0,2,0,0,1,0,0,0,0,0,1,0,1,94704.0
3.0,7.0,3.0,5.0,5.0,2.0,10,1.0,1,0,0,0,0,1,0,0,0,0,0,1,66521.0
25.0,36.0,10.0,7.0,5.0,1.0,6,10.0,4,0,0,0,0,0,0,0,0,0,0,1,63644.0
4.0,10.0,10.0,5.0,5.0,1.0,0,2.0,2,1,1,0,0,0,0,0,0,0,0,1,46622.0
8.0,18.0,8.0,7.0,7.0,0.0,10,10.0,7,1,0,0,0,0,1,1,0,0,0,1,55000.0
6.0,10.0,5.0,5.0,5.0,0.0,0,4.0,3,1,0,0,1,0,0,0,0,0,0,1,42000.0
27.0,30.0,27.0,6.0,2.0,0.0,6,6.0,5,1,1,0,1,0,1,0,0,0,0,1,49044.0
5.0,10.0,5.0,4.0,5.0,1.0,0,4.0,4,1,1,0,1,0,0,0,0,0,0,1,23274.0
6.0,8.0,6.0,4.0,9.0,0.0,10,2.0,3,0,1,1,0,0,0,0,0,0,0,1,160000.0
6.0,6.0,10.0,6.0,8.0,1.0,3,5.0,6,1,1,0,0,0,0,0,0,0,0,1,118147.0
4.0,9.0,10.0,3.0,5.0,1.0,6,0.0,6,0,1,0,1,0,1,0,0,0,0,1,58097.0
25.0,27.0,10.0,6.0,1.0,0.0,6,9.0,7,0,1,0,1,0,1,1,1,0,0,0,85925.0
4.0,6.0,10.0,7.0,4.0,1.0,9,1.0,2,1,0,0,1,0,0,0,0,0,0,1,92293.0
10.0,16.0,10.0,5.0,9.0,0.0,0,1.0,3,0,0,0,1,0,1,0,0,0,0,1,111892.0
7.0,7.0,11.0,5.0,6.0,1.0,9,0.0,6,0,1,0,1,0,1,0,0,0,0,1,42038.0
1.0,5.0,10.0,5.0,4.0,0.0,10,0.0,4,1,1,1,1,0,0,0,0,0,0,1,102300.0
9.0,10.0,9.0,5.0,9.0,0.0,6,7.0,2,0,0,0,0,0,0,0,0,0,0,0,60000.0
15.0,18.0,10.0,6.0,6.0,0.0,6,1.0,3,0,0,0,0,1,0,0,0,1,0,1,107406.0
6.0,8.0,10.0,4.0,9.0,1.0,6,0.0,5,1,1,0,0,0,0,0,0,0,1,1,35444.0
1.0,8.0,1.0,5.0,4.0,0.0,9,0.0,8,1,1,1,1,0,1,1,0,0,0,1,44586.0
5.0,8.0,6.0,6.0,4.0,2.0,6,1.0,5,1,1,1,0,0,0,0,0,0,1,1,55190.0
4.0,7.0,7.0,6.0,5.0,1.0,0,10.0,8,1,1,1,0,0,0,0,0,0,0,1,13987.0
5.0,8.0,7.0,6.0,9.0,1.0,2,10.0,5,1,0,0,0,0,1,1,0,0,0,1,53703.0
5.0,10.0,6.0,5.0,3.0,2.0,6,1.0,8,0,1,0,1,1,1,0,0,0,0,1,36266.0
9.0,11.0,11.0,4.0,9.0,0.0,3,10.0,6,1,1,0,1,1,0,0,0,0,0,1,96666.0
6.0,9.0,6.0,5.0,4.0,1.0,6,4.0,6,1,1,1,1,0,0,0,0,0,0,1,86000.0
10.0,16.0,10.0,6.0,1.0,0.0,9,1.0,4,0,0,1,1,0,0,0,0,0,0,0,203821.0
13.0,33.0,12.0,5.0,6.0,1.0,6,0.0,4,0,1,0,1,1,0,0,0,0,0,1,38140.0
36.0,40.0,10.0,7.0,1.0,0.0,10,10.0,12,1,1,0,1,1,0,1,0,0,0,0,166000.0
10.0,14.0,10.0,5.0,3.0,0.0,10,6.0,2,0,1,0,0,0,0,0,0,0,0,1,230000.0
7.0,10.0,7.0,5.0,5.0,1.0,6,10.0,2,0,0,0,1,0,0,0,0,0,0,1,48572.0
14.0,22.0,15.0,3.0,2.0,0.0,6,0.0,8,0,1,0,1,1,1,0,0,0,0,0,60000.0
4.0,5.0,10.0,7.0,2.0,0.0,3,1.0,4,0,1,0,0,0,0,0,0,1,1,1,85925.0
21.0,23.0,23.0,6.0,3.0,1.0,8,0.0,3,0,0,0,1,0,0,0,0,1,0,1,16291.0
5.0,12.0,5.0,5.0,4.0,0.0,9,10.0,9,1,1,1,0,0,0,1,0,1,1,1,191082.0
5.0,11.0,10.0,7.0,6.0,1.0,3,8.0,10,0,0,0,1,0,0,1,0,0,0,1,118147.0
10.0,12.0,10.0,5.0,7.0,0.0,6,0.0,10,1,1,1,0,0,1,0,1,1,0,1,69069.0
10.0,16.0,10.0,5.0,4.0,1.0,6,0.0,7,0,1,1,1,0,0,0,1,0,0,1,51841.0
6.0,9.0,6.0,5.0,5.0,1.0,4,2.0,8,0,1,0,1,0,0,0,1,0,0,1,41872.0
3.0,8.0,10.0,7.0,9.0,0.0,6,10.0,4,1,0,0,0,0,0,0,0,0,1,1,71351.0
12.0,15.0,13.0,6.0,4.0,0.0,0,1.0,3,0,0,0,1,1,0,0,0,0,0,1,13987.0
26.0,28.0,26.0,3.0,2.0,0.0,6,0.0,4,0,0,1,1,0,1,0,0,0,0,1,60781.0
23.0,40.0,36.0,5.0,4.0,2.0,10,6.0,5,1,0,1,0,0,0,1,0,0,0,1,250000.0
1.0,7.0,1.0,5.0,5.0,1.0,6,0.0,9,0,1,1,1,1,0,0,0,0,0,1,12713.0
10.0,14.0,11.0,5.0,6.0,1.0,6,10.0,8,1,1,1,1,1,1,1,0,0,0,1,95258.0
3.0,6.0,3.0,5.0,4.0,1.0,6,2.0,3,0,1,1,0,0,0,0,0,0,0,1,24707.0
8.0,22.0,10.0,5.0,5.0,1.0,10,10.0,4,1,0,0,0,0,0,0,0,0,1,1,108000.0
2.0,8.0,2.0,2.0,4.0,1.0,6,10.0,13,1,1,1,1,1,0,1,0,0,1,1,19849.0
10.0,19.0,10.0,6.0,4.0,1.0,5,0.0,7,0,1,1,1,1,0,1,0,0,0,0,53703.0
8.0,8.0,10.0,6.0,4.0,1.0,2,7.0,2,0,0,0,0,0,0,0,0,0,0,1,82703.0
4.0,4.0,4.0,2.0,9.0,1.0,9,7.0,2,0,0,1,0,0,0,0,0,0,0,1,76433.0
9.0,14.0,10.0,5.0,4.0,1.0,6,9.0,5,1,0,0,0,0,1,1,0,0,0,1,111417.0
8.0,13.0,8.0,6.0,7.0,0.0,10,0.0,10,1,1,1,1,1,1,0,0,0,0,1,160000.0
29.0,35.0,10.0,5.0,2.0,2.0,6,0.0,5,0,1,1,1,1,0,0,0,0,0,1,23629.0
45.0,50.0,45.0,4.0,3.0,0.0,1,0.0,4,0,1,0,1,0,1,0,0,0,0,0,36346.0
6.0,10.0,10.0,5.0,6.0,1.0,6,0.0,6,1,1,1,0,1,1,0,0,0,0,1,44037.0
1.0,2.0,1.0,6.0,3.0,1.0,6,0.0,8,1,1,1,1,0,0,0,1,0,0,1,15037.0
10.0,10.0,10.0,6.0,9.0,1.0,6,3.0,3,1,0,0,0,0,0,0,0,0,1,1,85925.0
7.0,12.0,10.0,6.0,4.0,2.0,2,1.0,3,0,1,1,0,0,0,0,0,0,0,1,88073.0
8.0,12.0,8.0,5.0,2.0,1.0,10,10.0,5,1,0,1,0,0,0,0,1,0,0,1,200000.0
8.0,14.0,10.0,6.0,1.0,1.0,6,2.0,1,0,0,1,0,0,0,0,0,0,0,0,70888.0
20.0,23.0,10.0,5.0,5.0,0.0,3,4.0,3,1,0,0,0,0,0,0,0,0,0,1,182591.0
15.0,3.0,15.0,6.0,5.0,2.0,6,0.0,6,0,1,1,1,0,1,0,0,0,0,1,24707.0
5.0,8.0,10.0,5.0,9.0,1.0,6,4.0,7,1,0,0,1,1,0,0,0,0,1,1,85886.0
5.0,11.0,5.0,6.0,9.0,2.0,2,5.0,2,0,0,0,0,0,1,0,0,0,0,1,51555.0
20.0,20.0,20.0,3.0,3.0,0.0,7,2.0,3,0,0,1,0,0,0,0,0,0,0,0,118147.0
33.0,45.0,10.0,3.0,9.0,0.0,10,1.0,3,0,1,0,1,0,1,0,0,0,0,1,110000.0
9.0,11.0,9.0,5.0,3.0,0.0,6,0.0,5,0,1,1,1,0,0,0,0,0,0,1,91295.0
7.0,10.0,7.0,6.0,7.0,1.0,6,10.0,5,1,0,0,0,0,0,1,0,0,0,1,53703.0
29.0,33.0,10.0,6.0,9.0,1.0,3,1.0,1,1,0,0,0,0,0,0,0,0,0,1,118147.0
2.0,7.0,5.0,3.0,4.0,1.0,3,1.0,7,0,1,0,1,0,1,0,1,0,0,1,48333.0
5.0,8.0,8.0,3.0,4.0,0.0,5,10.0,3,1,0,0,0,0,0,0,0,1,0,1,96666.0
12.0,14.0,16.0,2.0,3.0,2.0,3,0.0,5,1,1,0,1,0,1,0,0,0,0,1,80555.0
10.0,19.0,10.0,7.0,4.0,0.0,10,6.0,3,1,0,1,0,0,0,0,0,0,0,1,240000.0
11.0,10.0,10.0,5.0,4.0,1.0,6,0.0,7,1,1,1,0,0,1,0,0,0,1,0,86309.0
10.0,18.0,10.0,6.0,5.0,0.0,9,9.0,5,0,1,1,0,0,0,1,0,0,1,1,124840.0
11.0,19.0,11.0,6.0,9.0,2.0,9,9.0,3,0,0,0,0,1,0,1,0,0,1,1,254776.0
29.0,29.0,10.0,2.0,8.0,1.0,6,1.0,6,1,1,0,1,0,0,0,0,0,0,1,145345.0
23.0,23.0,10.0,5.0,5.0,0.0,9,2.0,3,0,1,1,0,0,0,0,0,0,0,1,114649.0
8.0,8.0,10.0,7.0,4.0,0.0,10,0.0,5,0,1,1,1,0,0,0,1,0,0,1,110000.0
3.0,9.0,10.0,6.0,2.0,1.0,2,0.0,9,1,1,1,1,1,0,1,0,0,0,1,52629.0
26.0,29.0,26.0,5.0,3.0,0.0,1,7.0,6,0,1,1,0,0,0,0,0,0,0,1,101770.0
6.0,14.0,6.0,5.0,4.0,0.0,7,0.0,4,0,0,1,1,1,0,0,0,0,0,1,55851.0
3.0,6.0,3.0,5.0,4.0,2.0,6,0.0,4,0,1,1,0,1,0,0,0,1,0,1,12938.0
9.0,20.0,10.0,5.0,7.0,1.0,6,1.0,2,0,0,0,1,1,0,0,0,0,0,1,32939.0
8.0,15.0,8.0,3.0,3.0,1.0,6,0.0,4,0,1,0,1,0,1,0,0,0,0,1,79489.0
3.0,11.0,3.0,5.0,9.0,2.0,6,2.0,1,0,0,1,0,0,0,0,0,0,0,1,75886.0
2.0,6.0,2.0,5.0,2.0,2.0,6,0.0,10,1,1,1,1,1,0,0,1,0,0,1,42962.0
8.0,11.0,8.0,5.0,7.0,1.0,6,4.0,4,1,0,0,1,0,0,0,0,1,0,1,77261.0
10.0,14.0,10.0,3.0,3.0,0.0,6,0.0,6,1,1,0,1,0,1,0,0,0,0,1,67884.0
20.0,25.0,20.0,5.0,2.0,0.0,9,0.0,3,0,0,0,1,0,1,0,0,0,0,1,101910.0
2.0,6.0,2.0,3.0,4.0,1.0,7,1.0,3,0,0,0,1,0,0,0,1,0,1,1,20407.0
3.0,10.0,3.0,3.0,7.0,1.0,3,1.0,8,1,0,1,1,0,0,0,0,0,0,0,25777.0
3.0,3.0,3.0,5.0,9.0,1.0,9,0.0,3,0,1,0,0,0,0,0,0,0,0,0,53503.0
9.0,14.0,9.0,6.0,9.0,2.0,6,8.0,14,1,1,1,0,1,0,1,0,1,0,1,195457.0
21.0,25.0,10.0,6.0,5.0,1.0,10,0.0,4,0,0,0,0,0,0,1,1,0,0,1,100000.0
10.0,10.0,10.0,5.0,5.0,0.0,6,0.0,7,1,1,1,1,1,0,0,0,0,0,1,81526.0
2.0,3.0,10.0,5.0,3.0,1.0,6,0.0,2,0,1,0,0,1,0,0,0,0,0,1,36518.0
5.0,40.0,32.0,7.0,9.0,1.0,3,10.0,2,0,0,0,0,0,1,0,0,0,0,1,161109.0
15.0,20.0,18.0,6.0,3.0,0.0,10,3.0,5,1,1,0,0,0,1,0,0,0,0,1,175000.0
11.0,12.0,11.0,5.0,4.0,1.0,5,0.0,3,0,1,1,0,0,0,0,0,0,0,1,91295.0
14.0,19.0,10.0,5.0,4.0,0.0,1,1.0,7,0,1,1,1,1,1,0,0,0,0,1,130847.0
5.0,7.0,10.0,3.0,1.0,1.0,6,0.0,5,0,1,1,1,0,0,0,0,1,0,0,15000.0
5.0,14.0,5.0,6.0,3.0,0.0,6,0.0,3,0,1,1,0,0,0,0,0,0,0,1,13423.0
16.0,22.0,10.0,5.0,1.0,0.0,7,0.0,5,0,1,1,1,0,1,0,0,0,0,0,64444.0
21.0,24.0,10.0,3.0,5.0,1.0,3,8.0,3,0,0,0,1,0,1,0,0,0,0,1,84851.0
9.0,11.0,9.0,5.0,8.0,0.0,10,0.0,9,1,1,1,0,0,0,0,0,1,1,1,200000.0
6.0,7.0,7.0,5.0,9.0,0.0,10,2.0,4,0,1,1,0,0,0,0,0,0,0,1,117000.0
6.0,13.0,6.0,6.0,5.0,0.0,4,0.0,7,0,1,1,1,1,0,0,0,0,0,1,38044.0
1.0,7.0,1.0,4.0,5.0,2.0,1,0.0,15,1,1,0,1,1,1,1,1,1,0,1,49431.0
4.0,8.0,4.0,5.0,4.0,1.0,6,1.0,4,0,1,1,1,0,0,0,1,0,0,1,45111.0
17.0,23.0,17.0,5.0,7.0,0.0,10,1.0,5,0,1,0,0,1,0,1,0,0,0,1,500000.0
40.0,51.0,10.0,5.0,5.0,2.0,6,9.0,5,1,0,0,0,0,0,1,0,0,0,1,110882.0
8.0,21.0,11.0,6.0,9.0,0.0,10,10.0,3,1,0,0,0,0,0,0,0,0,1,1,150000.0
14.0,17.0,14.0,5.0,7.0,1.0,9,10.0,3,0,1,0,0,0,0,0,0,1,0,1,152865.0
6.0,10.0,6.0,5.0,4.0,1.0,6,5.0,5,1,0,0,0,0,0,1,0,1,0,1,63549.0
12.0,15.0,10.0,4.0,1.0,0.0,7,0.0,2,0,1,0,0,1,0,0,0,0,0,0,38666.0
23.0,27.0,23.0,5.0,4.0,0.0,10,0.0,5,0,1,1,0,0,0,0,0,1,1,1,190000.0
10.0,12.0,10.0,5.0,9.0,1.0,2,8.0,2,0,0,0,1,0,1,0,0,0,0,1,53703.0
9.0,12.0,9.0,5.0,9.0,1.0,3,2.0,2,0,1,0,0,0,0,0,0,0,0,1,107406.0
6.0,10.0,8.0,5.0,5.0,2.0,6,4.0,3,1,1,0,1,0,0,0,0,0,0,1,12500.0
40.0,45.0,10.0,6.0,6.0,0.0,10,8.0,1,0,0,0,1,0,0,0,0,0,0,1,128000.0
10.0,12.0,10.0,5.0,4.0,0.0,6,7.0,4,0,1,0,0,1,0,0,0,0,0,1,33613.0
14.0,21.0,14.0,6.0,6.0,1.0,6,10.0,0,0,0,0,0,0,0,0,0,0,0,1,40336.0
16.0,25.0,16.0,6.0,5.0,1.0,10,0.0,2,1,0,1,0,0,0,0,0,0,0,1,150000.0
18.0,22.0,18.0,5.0,5.0,1.0,6,1.0,5,0,1,1,1,0,0,0,1,0,0,0,118147.0
1.0,11.0,10.0,3.0,4.0,0.0,6,1.0,8,1,1,0,0,0,1,1,0,1,1,1,44544.0
6.0,15.0,6.0,5.0,8.0,0.0,1,1.0,5,0,0,1,0,0,0,1,0,0,1,1,174463.0
0.0,10.0,10.0,6.0,7.0,1.0,9,10.0,8,1,0,0,0,1,1,1,0,0,0,0,38216.0
4.0,8.0,10.0,5.0,9.0,1.0,10,1.0,2,0,1,0,0,0,0,0,0,0,0,1,100000.0
9.0,11.0,10.0,3.0,3.0,0.0,6,1.0,7,0,1,1,1,0,0,1,1,1,0,1,69916.0
5.0,9.0,5.0,6.0,4.0,1.0,6,0.0,6,0,1,1,1,0,1,0,0,0,0,1,20000.0
12.0,15.0,10.0,6.0,4.0,0.0,9,9.0,4,1,0,0,0,0,0,1,0,0,0,1,165604.0
20.0,26.0,10.0,5.0,7.0,1.0,10,10.0,9,0,1,1,0,0,0,0,1,0,1,1,130000.0
1.0,6.0,10.0,5.0,6.0,1.0,10,0.0,7,0,1,1,1,0,1,0,0,0,0,1,86000.0
12.0,17.0,12.0,6.0,9.0,1.0,10,2.0,4,0,1,1,0,1,0,0,0,0,0,1,325099.0
7.0,10.0,6.0,5.0,4.0,0.0,6,0.0,5,1,1,1,1,0,0,0,0,0,0,1,52574.0
6.0,14.0,6.0,5.0,7.0,1.0,6,0.0,5,0,1,1,0,0,0,0,0,0,0,1,49600.0
28.0,40.0,28.0,6.0,7.0,0.0,6,4.0,1,1,0,0,0,0,0,0,0,0,0,1,168000.0
11.0,17.0,11.0,5.0,2.0,0.0,0,0.0,6,1,1,1,1,0,0,0,1,0,0,1,16168.0
6.0,10.0,6.0,6.0,9.0,1.0,8,0.0,4,0,1,0,0,1,0,0,0,0,0,1,50000.0
20.0,20.0,10.0,5.0,1.0,0.0,6,0.0,5,0,1,1,1,0,1,0,0,0,0,0,80123.0
3.0,4.0,3.0,7.0,5.0,1.0,8,3.0,4,1,0,0,0,0,0,0,0,0,0,1,23697.0
7.0,16.0,9.0,6.0,9.0,0.0,8,10.0,1,0,1,0,0,0,0,0,0,0,0,1,26659.0
6.0,15.0,10.0,6.0,9.0,0.0,10,0.0,7,1,0,1,0,1,0,0,0,0,1,1,180000.0
7.0,9.0,7.0,5.0,9.0,1.0,5,0.0,5,1,1,1,0,1,0,0,0,0,0,1,80555.0
0.0,15.0,6.0,6.0,6.0,1.0,2,0.0,6,1,1,0,0,0,1,0,0,0,0,1,47259.0
18.0,21.0,18.0,3.0,3.0,2.0,10,0.0,4,0,1,0,1,0,1,0,0,0,0,1,135000.0
3.0,8.0,10.0,5.0,1.0,0.0,9,10.0,2,1,1,0,0,0,0,0,0,0,0,0,63694.0
25.0,35.0,10.0,5.0,5.0,0.0,8,10.0,2,0,1,0,0,0,1,0,0,0,0,1,42654.0
0.0,5.0,10.0,5.0,6.0,1.0,10,0.0,8,1,1,1,1,1,0,0,0,1,0,1,96000.0
5.0,11.0,10.0,5.0,5.0,2.0,6,0.0,6,0,1,1,1,0,1,0,0,0,0,1,35000.0
24.0,30.0,24.0,5.0,3.0,0.0,0,0.0,2,0,1,0,0,0,0,0,0,0,0,1,111892.0
5.0,9.0,10.0,5.0,9.0,1.0,6,2.0,2,0,1,0,1,0,0,0,0,0,0,1,42962.0
13.0,20.0,10.0,3.0,1.0,2.0,6,0.0,7,0,1,1,1,0,0,0,1,0,0,0,85846.0
14.0,19.0,14.0,5.0,2.0,0.0,6,0.0,4,0,1,0,1,0,1,0,0,0,0,1,21348.0
2.0,6.0,2.0,5.0,6.0,1.0,10,0.0,5,0,1,1,1,1,0,0,0,0,0,1,83090.0
18.0,22.0,10.0,6.0,7.0,1.0,2,5.0,6,0,1,1,0,1,0,0,0,0,0,1,60147.0
12.0,23.0,12.0,5.0,5.0,1.0,10,0.0,3,0,0,0,1,0,0,0,1,0,0,1,70000.0
5.0,8.0,10.0,7.0,7.0,1.0,6,3.0,1,1,0,0,0,0,0,0,0,0,0,1,61222.0
5.0,11.0,10.0,5.0,6.0,1.0,9,0.0,7,1,1,0,1,0,0,0,0,1,0,1,70063.0
3.0,17.0,13.0,5.0,5.0,1.0,2,1.0,9,1,1,1,1,0,1,1,1,1,1,1,42962.0
7.0,11.0,10.0,6.0,9.0,1.0,2,0.0,8,0,1,1,1,1,0,0,0,0,0,1,46185.0
4.0,8.0,4.0,3.0,6.0,1.0,3,8.0,5,1,1,0,0,0,0,1,0,0,0,0,20622.0
10.0,14.0,10.0,6.0,5.0,0.0,8,0.0,2,0,0,0,1,0,1,0,0,0,0,1,44431.0
10.0,15.0,10.0,3.0,4.0,0.0,7,1.0,1,1,0,0,0,0,0,0,0,0,0,1,83132.0
10.0,13.0,10.0,5.0,4.0,0.0,2,0.0,5,1,1,0,1,0,0,0,0,0,0,1,98814.0
12.0,20.0,10.0,6.0,5.0,1.0,2,10.0,8,0,1,1,1,0,1,0,0,0,0,1,46185.0
4.0,8.0,4.0,5.0,4.0,2.0,6,2.0,10,1,1,1,1,1,0,1,0,0,0,1,10767.0
10.0,10.0,10.0,6.0,8.0,1.0,2,2.0,3,0,1,1,0,0,0,0,0,0,0,1,56925.0
4.0,14.0,4.0,5.0,7.0,1.0,6,0.0,11,1,1,1,1,1,0,1,0,0,0,1,19177.0
12.0,13.0,12.0,6.0,2.0,0.0,2,2.0,3,0,1,1,0,0,0,0,0,0,0,1,68203.0
2.0,6.0,2.0,5.0,7.0,1.0,6,1.0,3,1,0,0,1,0,0,1,0,0,0,0,32576.0
13.0,20.0,17.0,6.0,7.0,1.0,6,10.0,13,1,1,1,1,1,0,1,0,0,1,1,90248.0
6.0,9.0,10.0,5.0,6.0,0.0,3,10.0,5,0,1,1,0,0,0,0,0,1,0,1,268515.0
8.0,12.0,8.0,5.0,5.0,0.0,10,0.0,4,0,1,0,1,0,0,0,1,0,0,1,120000.0
0.0,7.0,1.0,5.0,4.0,2.0,10,10.0,4,0,1,1,0,1,0,0,0,0,0,1,30000.0
6.0,18.0,6.0,3.0,5.0,2.0,10,0.0,6,1,1,0,1,1,0,0,0,0,0,1,200000.0
0.0,9.0,1.0,5.0,5.0,2.0,9,2.0,3,1,1,0,0,0,0,0,0,0,0,1,31847.0
8.0,18.0,8.0,6.0,2.0,2.0,2,1.0,5,0,1,1,0,0,1,0,0,0,0,1,54777.0
32.0,35.0,35.0,5.0,6.0,0.0,6,10.0,13,1,1,0,1,1,0,1,1,0,0,1,72829.0
0.0,2.0,12.0,6.0,3.0,2.0,6,10.0,4,0,1,1,0,0,0,0,0,0,0,1,111417.0
6.0,12.0,6.0,5.0,5.0,1.0,10,0.0,5,0,1,0,0,0,1,0,0,0,0,1,82000.0
11.0,22.0,11.0,5.0,3.0,1.0,6,6.0,5,0,1,1,1,0,0,0,0,0,0,1,89857.0
6.0,12.0,6.0,5.0,5.0,0.0,9,0.0,7,0,1,1,1,0,1,0,0,0,1,1,48407.0
39.0,40.0,10.0,5.0,9.0,2.0,10,9.0,6,1,0,0,0,1,0,1,0,0,0,1,184000.0
13.0,15.0,13.0,5.0,5.0,1.0,9,0.0,5,0,1,1,1,0,1,0,0,0,0,1,76433.0
14.0,10.0,10.0,7.0,5.0,1.0,7,0.0,6,1,1,1,0,1,0,0,1,0,0,1,30074.0
10.0,16.0,15.0,5.0,4.0,2.0,6,6.0,9,1,1,0,1,0,1,0,0,1,1,1,114559.0
8.0,12.0,10.0,6.0,4.0,0.0,8,1.0,1,0,0,0,0,1,0,0,0,0,0,1,65000.0
34.0,40.0,34.0,6.0,6.0,2.0,10,0.0,4,0,0,0,0,1,0,1,0,0,0,1,175000.0
12.0,15.0,12.0,5.0,6.0,0.0,6,0.0,5,0,1,1,1,0,1,0,0,0,0,1,80555.0
30.0,49.0,10.0,5.0,6.0,2.0,6,0.0,6,0,1,0,1,0,0,1,0,1,0,1,73748.0
16.0,30.0,16.0,5.0,7.0,1.0,6,0.0,5,1,1,0,1,0,0,0,0,0,0,1,81307.0
14.0,16.0,14.0,6.0,2.0,1.0,10,10.0,2,0,1,0,0,0,0,0,0,0,0,1,55000.0
2.0,3.0,3.0,3.0,5.0,1.0,6,8.0,8,0,1,0,1,0,1,1,0,1,0,1,37120.0
25.0,30.0,10.0,4.0,1.0,0.0,6,0.0,5,0,0,0,1,0,1,0,0,0,0,1,77332.0
12.0,20.0,15.0,5.0,4.0,0.0,10,0.0,8,1,1,1,1,1,1,1,1,0,0,1,85000.0
35.0,42.0,10.0,5.0,4.0,2.0,1,2.0,4,1,0,0,1,0,1,0,0,0,0,1,66877.0
8.0,14.0,10.0,5.0,1.0,0.0,6,0.0,10,0,1,1,1,1,1,0,1,0,1,0,64444.0
14.0,22.0,14.0,6.0,2.0,0.0,6,7.0,6,0,1,1,1,0,1,0,0,0,0,0,107617.0
8.0,12.0,10.0,5.0,4.0,2.0,6,0.0,3,0,1,0,1,0,1,0,0,0,0,1,57230.0
5.0,10.0,5.0,5.0,5.0,1.0,3,9.0,2,0,0,0,0,0,0,1,0,0,0,1,71962.0
8.0,10.0,8.0,5.0,4.0,0.0,9,8.0,3,1,0,0,0,1,0,0,0,0,1,1,95541.0
3.0,7.0,3.0,5.0,7.0,1.0,6,8.0,1,0,0,0,0,0,0,0,0,0,0,1,70888.0
6.0,7.0,8.0,6.0,9.0,0.0,9,10.0,4,1,0,0,1,0,1,0,0,0,0,1,82802.0
10.0,20.0,10.0,7.0,9.0,1.0,1,10.0,3,1,0,0,0,0,0,1,0,0,0,1,290772.0
10.0,13.0,11.0,5.0,7.0,1.0,2,0.0,4,0,1,1,0,0,0,0,1,0,0,1,70888.0
30.0,40.0,30.0,5.0,5.0,0.0,10,8.0,3,0,0,0,0,0,1,1,0,0,0,1,225000.0
14.0,18.0,14.0,5.0,9.0,1.0,6,10.0,3,0,0,0,1,0,0,0,0,0,0,1,122559.0
20.0,25.0,21.0,5.0,7.0,1.0,6,5.0,4,1,1,0,0,0,0,0,0,0,0,1,158558.0
25.0,25.0,10.0,4.0,2.0,0.0,6,2.0,4,0,1,1,0,0,1,0,0,0,0,1,122402.0
13.0,29.0,10.0,5.0,4.0,1.0,10,0.0,2,0,0,0,1,0,1,0,0,0,0,1,121000.0
14.0,18.0,14.0,5.0,6.0,1.0,3,0.0,6,1,1,0,1,0,1,0,0,0,0,1,80555.0
1.0,8.0,10.0,6.0,3.0,0.0,10,0.0,2,0,1,0,0,0,0,0,0,0,0,1,120000.0
2.0,9.0,2.0,6.0,4.0,1.0,5,3.0,8,1,1,1,1,1,0,0,0,0,0,1,53703.0
10.0,15.0,10.0,6.0,5.0,1.0,5,9.0,2,1,0,1,0,0,0,0,0,0,0,1,53703.0
25.0,25.0,10.0,3.0,1.0,0.0,10,0.0,10,1,1,1,1,0,0,0,1,0,1,0,230000.0
4.0,7.0,3.0,6.0,6.0,1.0,3,10.0,3,1,0,0,0,1,0,0,0,0,0,1,55851.0
13.0,17.0,13.0,6.0,9.0,1.0,4,0.0,3,0,0,0,1,1,0,0,0,0,0,1,113653.0
10.0,12.0,10.0,5.0,2.0,0.0,9,0.0,5,1,0,1,1,0,1,0,0,0,0,1,58598.0
0.0,3.0,1.0,4.0,8.0,0.0,7,1.0,4,0,0,0,1,1,0,0,1,0,0,1,19870.0
10.0,14.0,10.0,5.0,2.0,0.0,10,0.0,4,1,1,0,1,0,0,0,0,0,0,1,180000.0
18.0,22.0,22.0,5.0,4.0,0.0,10,5.0,16,1,1,1,1,1,1,0,1,1,0,0,120000.0
1.0,5.0,1.0,5.0,8.0,1.0,10,0.0,7,1,1,1,1,0,0,0,0,1,0,1,113000.0
32.0,41.0,32.0,5.0,2.0,1.0,6,0.0,6,0,1,0,1,1,1,0,0,0,0,1,26426.0
1.0,6.0,10.0,3.0,4.0,1.0,6,0.0,12,1,1,1,1,1,0,0,0,0,0,1,46246.0
21.0,28.0,22.0,5.0,5.0,1.0,10,6.0,7,1,1,1,0,0,0,1,0,0,0,1,230000.0
21.0,24.0,22.0,3.0,3.0,0.0,3,0.0,5,1,1,0,1,0,0,0,0,0,0,1,59670.0
3.0,7.0,3.0,5.0,5.0,1.0,3,0.0,4,0,1,1,0,0,1,0,0,0,0,1,45111.0
23.0,32.0,10.0,3.0,4.0,0.0,6,0.0,4,1,1,0,0,0,0,0,0,0,0,1,81077.0
5.0,8.0,10.0,5.0,3.0,1.0,6,7.0,5,1,0,0,0,0,0,0,0,0,1,1,79552.0
16.0,26.0,16.0,6.0,9.0,1.0,6,1.0,8,1,1,1,1,1,1,1,0,0,0,1,75184.0
7.0,10.0,7.0,5.0,3.0,1.0,9,0.0,4,0,0,0,0,1,0,1,0,0,0,1,36942.0
13.0,20.0,15.0,5.0,3.0,1.0,6,0.0,6,1,1,0,1,0,0,0,1,0,0,1,72673.0
5.0,9.0,10.0,5.0,5.0,0.0,10,1.0,2,1,0,0,0,0,0,0,0,1,0,1,170000.0
11.0,13.0,13.0,5.0,2.0,1.0,5,1.0,13,1,1,1,1,1,0,0,0,0,1,1,104399.0
11.0,18.0,10.0,5.0,4.0,2.0,5,0.0,3,0,0,0,0,0,1,1,0,0,0,1,64444.0
2.0,7.0,10.0,5.0,5.0,2.0,1,10.0,11,1,1,1,1,1,1,0,0,1,0,1,94501.0
23.0,28.0,10.0,2.0,4.0,0.0,3,0.0,4,0,1,1,0,0,0,0,0,0,0,1,123517.0
12.0,13.0,10.0,5.0,9.0,1.0,6,9.0,3,1,0,0,0,0,0,1,0,0,0,1,94517.0
15.0,20.0,15.0,5.0,5.0,1.0,6,1.0,1,0,0,0,0,0,1,0,0,0,0,1,42962.0
3.0,4.0,3.0,5.0,3.0,0.0,8,7.0,2,0,0,0,0,1,0,0,0,0,0,0,12000.0
17.0,30.0,30.0,5.0,5.0,0.0,10,1.0,2,0,0,0,1,0,1,0,0,0,0,1,150000.0
21.0,32.0,21.0,7.0,4.0,1.0,9,1.0,3,0,1,0,1,0,0,0,0,0,0,1,160509.0
8.0,12.0,8.0,5.0,5.0,1.0,6,3.0,7,1,1,1,1,0,0,0,0,0,1,1,78050.0
10.0,20.0,10.0,5.0,9.0,0.0,6,2.0,5,0,1,1,1,1,0,0,0,0,0,1,45111.0
13.0,15.0,10.0,3.0,2.0,0.0,6,0.0,5,1,1,1,0,0,0,0,0,0,0,1,119419.0
20.0,23.0,10.0,3.0,7.0,0.0,10,1.0,1,0,0,0,0,0,0,0,0,1,0,1,350000.0
20.0,25.0,20.0,2.0,6.0,0.0,1,0.0,8,0,1,1,1,1,1,0,0,0,0,1,181732.0
5.0,8.0,10.0,5.0,5.0,0.0,3,10.0,14,1,1,1,1,1,0,1,1,0,0,0,10311.0
12.0,15.0,10.0,6.0,5.0,1.0,2,1.0,3,1,0,1,0,0,0,0,0,1,0,1,69814.0
6.0,10.0,6.0,3.0,5.0,1.0,6,0.0,5,0,1,0,0,1,0,0,0,0,0,1,49407.0
12.0,15.0,10.0,6.0,5.0,1.0,9,4.0,2,1,0,0,1,0,0,0,0,0,0,1,120509.0
6.0,8.0,10.0,6.0,3.0,0.0,6,8.0,2,0,0,0,0,0,0,0,0,0,1,1,113834.0
12.0,20.0,15.0,5.0,4.0,1.0,6,8.0,3,0,0,0,0,0,1,1,0,0,0,1,112312.0
3.0,14.0,3.0,6.0,7.0,2.0,3,9.0,6,1,0,0,0,0,0,1,0,1,0,1,62296.0
7.0,10.0,7.0,3.0,4.0,2.0,6,9.0,6,1,0,0,1,0,0,1,0,0,1,1,54937.0
27.0,38.0,27.0,5.0,5.0,0.0,6,0.0,7,0,1,1,1,0,1,0,0,0,0,1,118919.0
6.0,10.0,10.0,6.0,9.0,2.0,6,3.0,2,1,0,0,1,0,0,0,0,0,0,1,149745.0
4.0,10.0,4.0,6.0,4.0,0.0,2,1.0,1,1,0,0,0,0,0,0,0,0,0,1,128887.0
9.0,10.0,10.0,7.0,9.0,1.0,10,3.0,4,1,0,0,1,0,0,0,0,0,0,1,270000.0
7.0,15.0,7.0,3.0,4.0,0.0,8,0.0,4,0,1,1,1,1,0,0,0,0,0,1,64444.0
20.0,24.0,20.0,5.0,6.0,1.0,6,0.0,5,0,1,0,1,1,1,0,0,0,0,0,131472.0
10.0,15.0,15.0,3.0,5.0,0.0,10,4.0,2,1,0,0,1,0,0,0,0,0,0,1,250000.0
15.0,20.0,15.0,6.0,7.0,1.0,6,0.0,4,1,0,0,1,0,0,0,0,0,1,0,128887.0
2.0,10.0,10.0,5.0,7.0,2.0,10,1.0,2,0,0,0,0,1,0,0,0,0,0,1,100000.0
30.0,33.0,30.0,5.0,5.0,0.0,0,7.0,3,0,0,0,0,1,0,0,0,0,0,1,58184.0
11.0,17.0,11.0,5.0,7.0,2.0,6,2.0,9,0,1,1,0,1,1,0,0,0,1,1,73937.0
8.0,14.0,7.0,6.0,7.0,1.0,9,2.0,7,1,1,1,0,0,1,0,1,0,0,1,127388.0
13.0,15.0,13.0,3.0,4.0,0.0,10,0.0,6,0,1,0,1,0,0,0,1,0,0,1,120000.0
20.0,30.0,20.0,5.0,6.0,0.0,1,0.0,5,0,1,1,1,0,1,0,0,0,0,1,101770.0
6.0,7.0,6.0,5.0,7.0,1.0,10,2.0,3,0,1,1,0,0,0,0,0,0,0,1,185000.0
5.0,10.0,10.0,5.0,5.0,0.0,1,1.0,4,1,0,0,1,1,0,0,0,1,0,1,94501.0
9.0,16.0,9.0,6.0,5.0,2.0,6,9.0,6,1,1,1,0,0,0,1,0,0,1,1,106960.0
5.0,10.0,5.0,5.0,9.0,0.0,7,7.0,3,0,0,0,0,1,0,0,0,0,0,1,32759.0
24.0,27.0,24.0,5.0,6.0,0.0,10,0.0,7,1,1,1,1,0,0,0,0,0,0,1,205000.0
20.0,20.0,5.0,5.0,4.0,2.0,6,1.0,5,0,1,0,1,0,0,0,0,0,0,1,49165.0
3.0,5.0,3.0,6.0,2.0,0.0,1,0.0,5,0,1,0,1,1,0,0,1,0,0,0,32712.0
11.0,20.0,11.0,3.0,5.0,1.0,6,1.0,7,1,1,1,1,0,0,0,1,1,0,1,65578.0
10.0,10.0,10.0,6.0,7.0,1.0,5,0.0,9,1,1,1,1,0,0,0,0,1,1,1,79481.0
3.0,3.0,3.0,5.0,5.0,0.0,10,3.0,4,1,0,0,0,0,0,0,0,0,1,1,200000.0
34.0,35.0,10.0,2.0,1.0,0.0,6,0.0,4,1,0,0,1,0,1,1,0,0,0,0,77332.0
4.0,10.0,5.0,5.0,2.0,0.0,3,0.0,8,0,1,1,1,0,0,0,1,0,0,1,53703.0
5.0,17.0,5.0,6.0,5.0,0.0,2,0.0,6,0,1,1,1,0,0,0,1,0,0,1,59073.0
23.0,23.0,10.0,7.0,8.0,1.0,6,10.0,5,0,1,0,1,0,0,0,1,0,0,1,59073.0
25.0,29.0,10.0,5.0,3.0,2.0,9,0.0,6,0,0,1,0,0,0,1,0,0,1,1,76433.0
7.0,12.0,7.0,5.0,6.0,1.0,6,8.0,8,0,1,1,1,1,0,0,1,0,0,1,43127.0
1.0,5.0,16.0,3.0,2.0,1.0,6,10.0,19,1,1,1,1,1,1,1,1,1,1,0,99546.0
6.0,16.0,10.0,7.0,5.0,2.0,6,1.0,11,1,1,0,1,0,0,1,0,0,1,1,88073.0
25.0,25.0,10.0,4.0,6.0,0.0,10,10.0,3,0,0,0,1,0,0,0,0,0,0,1,200000.0
7.0,12.0,7.0,2.0,5.0,0.0,6,8.0,5,1,0,0,0,0,0,1,0,0,1,1,108000.0
14.0,19.0,14.0,6.0,3.0,1.0,2,0.0,6,0,0,1,1,0,1,0,0,0,0,1,51555.0
3.0,5.0,3.0,2.0,4.0,0.0,6,2.0,2,0,0,1,0,0,0,0,0,0,0,1,38604.0
6.0,10.0,10.0,6.0,3.0,1.0,6,1.0,7,1,1,0,1,0,1,0,1,0,0,1,63370.0
10.0,10.0,25.0,5.0,5.0,1.0,10,4.0,4,1,1,1,1,0,0,0,0,0,0,1,205000.0
5.0,13.0,6.0,7.0,5.0,1.0,9,10.0,3,1,0,0,0,0,1,0,0,0,0,1,62420.0
25.0,33.0,25.0,5.0,6.0,0.0,10,10.0,10,1,1,0,1,0,0,1,0,0,0,1,150000.0
3.0,8.0,3.0,6.0,9.0,1.0,6,1.0,3,0,0,1,1,0,0,0,0,0,0,1,33613.0
10.0,14.0,14.0,5.0,5.0,0.0,10,1.0,6,1,1,0,1,0,0,0,0,0,0,1,180000.0
5.0,5.0,15.0,6.0,3.0,0.0,6,4.0,2,1,0,0,1,0,0,0,0,0,0,1,30000.0
13.0,17.0,13.0,7.0,8.0,2.0,9,10.0,4,1,0,0,0,0,0,0,0,0,0,1,50955.0
5.0,8.0,5.0,5.0,4.0,1.0,3,7.0,5,1,0,0,0,1,0,1,0,0,0,1,85925.0
8.0,11.0,8.0,5.0,5.0,1.0,10,10.0,6,1,0,0,1,1,0,0,0,0,1,1,120000.0
15.0,22.0,15.0,5.0,4.0,0.0,6,10.0,3,0,0,0,1,0,1,0,0,0,0,1,85846.0
21.0,18.0,13.0,6.0,4.0,0.0,9,6.0,4,1,0,0,1,0,1,1,0,0,0,1,95541.0
10.0,13.0,10.0,5.0,4.0,2.0,6,0.0,2,1,0,0,1,0,0,0,0,0,0,1,17249.0
42.0,43.0,42.0,5.0,9.0,0.0,10,1.0,6,1,1,1,1,0,1,0,0,0,0,1,200000.0
22.0,22.0,22.0,3.0,3.0,0.0,6,0.0,1,0,0,0,0,0,0,0,0,0,0,1,64444.0
4.0,10.0,4.0,5.0,7.0,1.0,9,9.0,6,0,0,0,0,0,1,0,0,0,1,1,48407.0
11.0,17.0,11.0,6.0,8.0,0.0,6,1.0,8,1,1,0,1,1,1,0,0,0,0,1,86613.0
32.0,40.0,33.0,3.0,3.0,0.0,10,10.0,5,0,1,0,1,0,0,0,0,0,0,1,200000.0
18.0,19.0,20.0,5.0,5.0,0.0,10,1.0,7,0,1,1,1,1,0,0,0,0,0,1,230000.0
22.0,25.0,25.0,2.0,9.0,1.0,3,2.0,4,0,1,1,0,0,0,0,0,0,0,1,91295.0
12.0,15.0,10.0,5.0,8.0,0.0,6,5.0,4,1,0,0,1,0,1,0,0,0,0,1,100420.0
19.0,22.0,10.0,3.0,2.0,1.0,10,1.0,5,0,1,1,0,0,1,0,0,0,0,1,150000.0
25.0,30.0,10.0,5.0,1.0,0.0,5,0.0,5,0,1,0,1,0,0,0,0,0,0,0,161109.0
8.0,12.0,10.0,5.0,4.0,2.0,6,0.0,5,0,1,0,1,0,1,0,0,0,0,1,15476.0
19.0,25.0,17.0,6.0,4.0,1.0,9,9.0,7,1,1,0,0,0,0,1,0,1,0,1,85350.0
12.0,15.0,12.0,5.0,5.0,1.0,6,0.0,5,1,1,0,1,1,0,0,0,0,1,1,38154.0
4.0,9.0,4.0,6.0,6.0,1.0,6,1.0,10,1,1,0,1,1,1,0,0,1,0,1,77297.0
14.0,15.0,14.0,5.0,7.0,0.0,0,0.0,10,1,1,1,1,1,0,0,0,0,1,1,16784.0
4.0,9.0,4.0,5.0,7.0,2.0,4,0.0,5,0,1,1,1,1,0,0,0,0,0,1,21534.0
25.0,28.0,28.0,5.0,9.0,1.0,6,0.0,7,0,0,0,1,1,1,0,0,0,0,1,102950.0
4.0,11.0,11.0,3.0,4.0,0.0,6,1.0,7,0,1,0,1,1,1,0,0,0,0,1,30994.0
7.0,15.0,7.0,6.0,5.0,1.0,1,7.0,2,0,0,0,0,1,0,0,0,0,0,1,62516.0
1.0,5.0,1.0,5.0,4.0,1.0,6,1.0,4,0,1,1,1,0,1,0,0,0,0,1,16111.0
7.0,8.0,10.0,3.0,5.0,0.0,0,8.0,2,0,0,0,1,0,0,0,0,0,0,1,40000.0
10.0,12.0,10.0,5.0,4.0,0.0,10,0.0,3,0,0,1,1,0,0,0,0,0,0,1,17000.0
3.0,8.0,10.0,5.0,9.0,2.0,3,0.0,9,1,1,1,1,1,0,0,0,0,0,1,75184.0
10.0,12.0,8.0,5.0,5.0,0.0,6,0.0,6,0,1,1,1,1,0,0,0,0,0,0,128887.0
19.0,23.0,19.0,5.0,5.0,1.0,10,1.0,8,0,1,1,0,0,0,0,0,0,1,1,180000.0
24.0,32.0,22.0,6.0,9.0,2.0,3,0.0,4,0,1,1,0,1,0,0,0,0,0,0,85925.0
5.0,9.0,5.0,5.0,7.0,2.0,6,10.0,8,1,1,1,1,0,1,0,0,0,0,1,118388.0
10.0,25.0,10.0,5.0,4.0,2.0,6,0.0,4,0,0,0,1,0,0,0,0,0,1,1,161905.0
2.0,13.0,10.0,6.0,5.0,1.0,2,7.0,6,1,1,0,0,1,0,0,0,0,0,1,26852.0
6.0,15.0,8.0,5.0,5.0,1.0,3,8.0,7,1,0,0,1,1,1,1,0,0,0,1,42962.0
6.0,10.0,6.0,6.0,4.0,1.0,9,1.0,5,1,1,1,1,0,0,0,0,0,0,1,116796.0
13.0,16.0,10.0,5.0,5.0,1.0,3,8.0,6,0,1,0,1,0,1,0,1,0,0,1,107406.0
1.0,6.0,1.0,5.0,9.0,1.0,6,2.0,8,1,1,1,0,1,0,0,0,1,1,1,65279.0
12.0,15.0,12.0,6.0,4.0,1.0,2,1.0,5,1,0,1,0,1,0,0,0,0,0,1,62296.0
20.0,25.0,20.0,6.0,4.0,2.0,6,9.0,8,1,0,0,0,0,1,1,0,0,0,1,69290.0
15.0,30.0,10.0,5.0,5.0,1.0,10,8.0,10,1,1,0,1,0,1,1,0,0,0,1,100000.0
23.0,25.0,10.0,6.0,1.0,0.0,3,10.0,2,1,0,0,0,0,0,0,0,0,1,0,53703.0
10.0,13.0,11.0,6.0,3.0,1.0,6,1.0,13,1,0,1,1,1,1,1,0,1,0,1,111417.0
4.0,8.0,4.0,5.0,4.0,1.0,6,10.0,7,1,0,0,1,1,0,1,0,0,0,1,16693.0
2.0,9.0,2.0,6.0,5.0,1.0,2,8.0,4,1,0,0,0,0,1,1,0,0,0,1,38666.0
6.0,12.0,6.0,6.0,6.0,1.0,6,1.0,4,1,0,0,1,1,0,0,0,0,0,1,61768.0
38.0,29.0,24.0,7.0,6.0,2.0,3,10.0,10,1,1,0,0,0,0,1,0,0,1,1,104506.0
4.0,7.0,8.0,3.0,3.0,1.0,6,10.0,4,1,0,0,0,0,0,0,0,1,1,1,53703.0
15.0,22.0,15.0,6.0,7.0,1.0,6,1.0,6,1,0,0,0,1,0,0,0,1,0,1,110628.0
3.0,14.0,10.0,5.0,7.0,0.0,10,2.0,6,0,1,1,0,0,0,0,0,1,0,1,150000.0
5.0,7.0,5.0,5.0,5.0,1.0,6,0.0,5,0,1,1,0,1,1,0,0,0,0,1,57248.0
7.0,10.0,7.0,5.0,9.0,1.0,4,1.0,4,0,1,0,0,1,1,0,0,0,0,1,95708.0
2.0,4.0,12.0,5.0,4.0,1.0,10,0.0,5,1,1,0,1,0,0,0,0,0,0,1,67000.0
6.0,12.0,6.0,5.0,3.0,0.0,6,0.0,6,1,1,1,0,0,0,0,0,1,0,1,21534.0
3.0,8.0,4.0,5.0,6.0,1.0,6,1.0,2,1,0,0,0,1,0,0,0,0,0,1,15256.0
3.0,8.0,10.0,5.0,9.0,0.0,4,1.0,6,1,1,0,1,1,0,1,0,0,0,1,35890.0
0.0,8.0,10.0,5.0,4.0,0.0,10,7.0,7,1,1,0,1,1,0,0,0,0,0,1,75000.0
7.0,18.0,7.0,2.0,4.0,1.0,6,0.0,5,0,1,1,0,0,0,0,1,0,0,1,73002.0
2.0,11.0,2.0,6.0,7.0,1.0,2,9.0,4,1,0,0,0,0,0,0,0,0,0,1,42962.0
5.0,11.0,11.0,5.0,2.0,1.0,6,0.0,8,1,1,1,1,1,0,0,0,0,0,0,51841.0
9.0,12.0,9.0,6.0,7.0,0.0,8,7.0,2,0,0,0,0,1,0,0,0,0,0,1,54305.0
1.0,9.0,1.0,3.0,4.0,1.0,6,0.0,7,1,1,1,1,1,0,0,0,0,0,1,38154.0
10.0,16.0,16.0,5.0,9.0,1.0,10,0.0,7,0,1,0,1,1,1,0,0,0,0,1,184800.0
4.0,9.0,4.0,6.0,2.0,1.0,2,8.0,6,1,0,0,1,0,0,1,0,0,1,1,75184.0
5.0,6.0,5.0,3.0,5.0,0.0,3,2.0,5,0,1,1,0,1,0,0,0,0,0,1,70888.0
13.0,20.0,13.0,3.0,5.0,0.0,10,5.0,10,1,1,1,1,0,0,0,0,1,1,1,210000.0
1.0,5.0,10.0,6.0,8.0,2.0,9,10.0,2,0,0,0,0,0,0,0,0,0,0,1,50955.0
2.0,3.0,10.0,5.0,4.0,0.0,6,2.0,6,1,1,1,1,0,0,0,0,0,0,1,17663.0
2.0,15.0,2.0,3.0,4.0,2.0,6,0.0,8,1,1,1,1,0,1,0,1,0,0,1,48667.0
6.0,10.0,10.0,5.0,4.0,2.0,6,0.0,7,1,1,1,1,0,1,0,0,0,0,1,99099.0
7.0,10.0,10.0,5.0,2.0,1.0,4,1.0,1,0,0,0,0,0,0,0,1,0,0,0,119635.0
17.0,24.0,20.0,6.0,5.0,0.0,9,0.0,8,1,1,1,0,1,0,0,0,0,0,1,89172.0
8.0,8.0,7.0,6.0,5.0,1.0,5,2.0,3,0,1,1,0,0,0,0,0,0,0,1,75184.0
6.0,10.0,10.0,5.0,1.0,0.0,3,10.0,1,0,0,0,0,0,1,0,0,0,0,0,21481.0
24.0,40.0,24.0,3.0,2.0,0.0,6,0.0,7,0,1,1,1,0,1,0,1,0,0,1,105846.0
2.0,5.0,18.0,3.0,3.0,0.0,2,2.0,4,0,1,1,0,0,0,0,1,0,0,1,47796.0
8.0,19.0,10.0,3.0,5.0,0.0,10,10.0,4,0,1,1,1,0,0,0,0,0,0,1,143000.0
4.0,8.0,4.0,6.0,9.0,1.0,3,10.0,12,1,1,1,0,1,0,1,0,1,1,1,91295.0
2.0,6.0,2.0,5.0,8.0,2.0,10,1.0,5,0,1,0,0,1,0,0,0,1,0,1,90000.0
9.0,14.0,9.0,5.0,3.0,1.0,6,2.0,3,0,1,0,0,0,0,0,0,0,0,1,80555.0
7.0,8.0,8.0,5.0,4.0,0.0,6,1.0,4,1,0,0,1,0,0,0,0,1,1,1,200000.0
3.0,8.0,3.0,5.0,6.0,2.0,6,1.0,7,1,1,0,1,0,0,0,1,1,0,1,16000.0
20.0,24.0,24.0,5.0,7.0,0.0,10,0.0,4,0,1,0,1,0,1,0,0,0,0,1,124000.0
1.0,3.0,10.0,2.0,7.0,1.0,6,10.0,4,1,0,0,0,1,0,0,0,0,0,1,26852.0
10.0,13.0,9.0,5.0,4.0,0.0,9,1.0,3,1,0,0,0,0,0,0,0,0,1,1,101910.0
8.0,16.0,8.0,6.0,7.0,1.0,3,10.0,6,1,0,0,0,0,0,1,0,0,1,1,64444.0
5.0,5.0,7.0,7.0,7.0,1.0,6,6.0,5,1,1,1,0,0,0,0,0,0,0,1,53703.0
2.0,11.0,2.0,5.0,6.0,1.0,6,4.0,3,1,0,0,1,0,0,0,0,0,0,0,24499.0
26.0,29.0,26.0,6.0,7.0,1.0,6,9.0,1,0,0,0,0,0,0,0,0,0,1,1,96666.0
4.0,3.0,0.0,6.0,4.0,1.0,7,10.0,1,0,0,0,0,0,0,0,0,0,0,1,38666.0
4.0,9.0,4.0,5.0,2.0,1.0,10,0.0,6,1,1,1,0,0,0,0,1,0,0,1,75000.0
8.0,10.0,10.0,3.0,5.0,0.0,10,2.0,3,0,1,1,0,0,0,0,0,0,0,1,148000.0
7.0,11.0,7.0,6.0,4.0,1.0,3,9.0,3,1,0,0,0,0,0,1,0,0,0,1,77332.0
4.0,6.0,5.0,4.0,4.0,1.0,7,0.0,4,0,1,0,1,0,1,0,0,0,0,1,26852.0
3.0,3.0,10.0,6.0,9.0,1.0,8,0.0,1,0,0,0,0,0,0,0,0,0,0,1,37200.0
8.0,10.0,10.0,3.0,4.0,0.0,10,0.0,3,0,0,1,0,0,0,0,0,0,0,1,240000.0
2.0,7.0,10.0,2.0,9.0,2.0,10,1.0,10,1,0,1,0,1,0,1,0,0,0,1,64000.0
11.0,17.0,11.0,5.0,5.0,0.0,6,6.0,20,1,1,1,1,1,1,1,1,0,0,1,18600.0
20.0,20.0,12.0,6.0,6.0,1.0,3,7.0,9,0,1,1,0,1,0,1,0,0,0,1,77332.0
9.0,13.0,8.0,5.0,9.0,0.0,10,10.0,8,1,0,1,1,0,0,0,0,1,1,1,148000.0
10.0,17.0,10.0,5.0,4.0,0.0,10,8.0,1,0,0,0,0,0,0,0,0,0,0,1,222500.0
4.0,5.0,4.0,5.0,4.0,0.0,10,0.0,4,0,1,0,1,0,0,0,1,0,0,1,90000.0
1.0,10.0,1.0,5.0,9.0,2.0,10,0.0,8,0,1,1,0,0,1,0,0,0,1,1,138000.0
1.0,8.0,1.0,5.0,2.0,2.0,2,0.0,9,1,1,1,1,1,1,0,0,0,0,0,18259.0
17.0,30.0,17.0,7.0,8.0,1.0,10,6.0,5,1,1,0,0,0,0,0,0,0,0,1,180000.0
32.0,38.0,24.0,6.0,5.0,1.0,7,0.0,6,1,1,1,1,1,0,0,0,0,0,1,64444.0
20.0,30.0,10.0,7.0,8.0,2.0,1,10.0,13,0,0,0,1,1,0,1,0,0,0,1,72693.0
3.0,15.0,3.0,6.0,3.0,0.0,3,10.0,3,0,0,0,0,1,0,1,0,0,1,1,112777.0
10.0,14.0,10.0,5.0,4.0,2.0,10,0.0,6,1,1,0,1,0,0,0,0,0,0,1,135000.0
25.0,30.0,10.0,3.0,1.0,0.0,1,10.0,7,1,1,1,1,0,0,0,0,0,1,0,90866.0
7.0,12.0,10.0,5.0,7.0,2.0,9,0.0,8,1,1,1,1,0,0,1,0,1,0,1,56051.0
17.0,21.0,21.0,2.0,5.0,0.0,3,2.0,6,0,1,1,1,0,1,0,0,0,0,1,64444.0
2.0,7.0,2.0,2.0,9.0,1.0,6,0.0,15,1,1,1,1,1,1,1,1,0,0,0,18044.0
10.0,12.0,10.0,4.0,5.0,0.0,1,1.0,10,1,0,1,1,1,0,0,1,1,0,1,98135.0
18.0,19.0,10.0,5.0,3.0,2.0,6,0.0,4,0,1,0,1,0,0,0,0,0,0,1,34370.0
2.0,4.0,2.0,5.0,4.0,0.0,8,1.0,8,1,1,1,1,0,1,0,0,1,1,1,11848.0
5.0,8.0,5.0,5.0,3.0,1.0,9,0.0,8,1,1,1,1,0,0,0,0,0,0,1,127388.0
17.0,36.0,17.0,5.0,7.0,1.0,1,0.0,5,0,1,1,1,1,0,0,0,0,0,1,119943.0
7.0,8.0,8.0,6.0,7.0,1.0,10,1.0,8,1,1,0,1,1,0,0,0,1,0,1,425000.0
4.0,8.0,4.0,5.0,7.0,0.0,6,1.0,4,0,1,1,1,0,1,0,0,0,0,1,39740.0
8.0,8.0,8.0,3.0,7.0,1.0,9,0.0,6,0,1,0,1,0,0,0,1,0,0,1,62981.0
11.0,18.0,10.0,6.0,5.0,1.0,3,9.0,4,1,0,0,0,0,0,1,0,0,0,1,68004.0
5.0,14.0,10.0,3.0,1.0,0.0,4,0.0,5,1,1,1,1,0,0,0,0,0,0,0,20936.0
6.0,14.0,6.0,6.0,9.0,1.0,10,1.0,8,1,1,1,0,1,0,0,0,0,1,1,245000.0
2.0,4.0,2.0,5.0,5.0,1.0,10,0.0,7,0,1,0,1,1,1,0,0,0,0,1,83000.0
2.0,3.0,3.0,6.0,6.0,0.0,6,2.0,4,0,1,1,0,0,0,0,0,0,0,1,38095.0
6.0,9.0,10.0,6.0,9.0,2.0,10,10.0,6,1,0,0,0,0,0,1,0,0,1,1,125000.0
12.0,15.0,12.0,5.0,3.0,1.0,1,0.0,4,0,1,1,0,0,0,0,0,0,0,1,130847.0
2.0,12.0,2.0,3.0,3.0,0.0,6,0.0,7,0,0,1,0,0,0,0,0,0,1,1,21481.0
30.0,45.0,10.0,7.0,7.0,1.0,9,8.0,9,1,0,0,0,0,1,1,0,0,1,1,82802.0
2.0,6.0,2.0,4.0,8.0,1.0,6,0.0,5,0,1,1,1,0,1,0,0,0,0,1,32222.0
7.0,12.0,1.0,5.0,7.0,2.0,6,8.0,3,0,1,0,0,0,1,0,0,0,0,1,17251.0
5.0,9.0,5.0,5.0,7.0,0.0,10,7.0,7,0,1,1,0,0,0,0,0,0,0,1,335000.0
11.0,2.0,13.0,6.0,5.0,0.0,6,0.0,6,1,1,1,1,0,1,0,0,1,0,1,37096.0
16.0,25.0,10.0,5.0,6.0,1.0,6,0.0,5,0,1,0,0,0,1,1,0,0,0,1,133700.0
11.0,11.0,12.0,7.0,9.0,1.0,9,3.0,3,1,0,0,1,0,0,0,0,0,0,1,107006.0
15.0,27.0,15.0,5.0,4.0,1.0,6,6.0,3,1,0,1,0,0,0,0,1,0,0,1,161905.0
44.0,50.0,10.0,6.0,1.0,0.0,6,10.0,10,1,0,0,1,1,1,1,1,0,0,0,53703.0
5.0,5.0,10.0,5.0,7.0,1.0,9,0.0,3,1,0,0,0,1,0,0,0,0,0,1,94267.0
10.0,12.0,11.0,5.0,9.0,1.0,5,0.0,7,0,1,1,1,1,0,1,0,0,0,1,73036.0
3.0,6.0,3.0,6.0,5.0,2.0,6,9.0,2,1,0,0,0,0,0,0,0,0,0,1,44640.0
5.0,10.0,7.0,6.0,4.0,0.0,0,10.0,6,1,1,0,1,0,0,0,0,0,0,1,56000.0
19.0,26.0,19.0,3.0,4.0,1.0,6,0.0,5,0,1,1,0,1,0,0,0,0,0,1,64444.0
15.0,17.0,17.0,3.0,4.0,0.0,6,0.0,6,0,1,1,1,0,1,0,0,0,0,0,214812.0
8.0,20.0,8.0,6.0,9.0,0.0,3,0.0,6,0,1,0,1,1,1,0,0,0,0,1,96666.0
20.0,29.0,22.0,3.0,5.0,0.0,10,10.0,2,1,0,0,0,0,0,0,0,0,0,1,175875.0
0.0,0.0,10.0,2.0,9.0,2.0,9,2.0,1,0,1,0,0,0,0,0,0,0,0,0,30573.0
6.0,10.0,15.0,3.0,2.0,0.0,6,0.0,2,0,1,0,0,1,0,0,0,0,0,0,19903.0
3.0,11.0,4.0,5.0,5.0,1.0,9,0.0,5,1,1,0,1,0,1,0,0,0,0,1,59872.0
36.0,39.0,36.0,5.0,3.0,0.0,4,0.0,7,0,1,0,0,1,0,1,1,0,0,0,59817.0
12.0,20.0,3.0,5.0,4.0,0.0,6,8.0,7,0,1,0,1,1,0,0,1,0,0,1,107406.0
10.0,12.0,10.0,6.0,7.0,1.0,10,10.0,10,1,1,0,1,0,0,1,0,0,1,1,140000.0
4.0,10.0,10.0,6.0,1.0,1.0,5,10.0,12,1,1,1,1,1,1,1,1,0,0,0,32222.0
10.0,14.0,10.0,5.0,4.0,1.0,6,0.0,4,0,1,0,0,0,0,0,1,0,0,1,86039.0
5.0,8.0,7.0,5.0,5.0,1.0,3,10.0,5,1,1,0,0,0,0,0,0,0,0,0,49407.0
1.0,14.0,10.0,3.0,7.0,0.0,3,10.0,2,0,0,0,1,0,0,0,0,0,0,1,32222.0
12.0,15.0,15.0,5.0,3.0,0.0,3,1.0,5,0,0,0,1,1,0,0,1,1,0,1,77332.0
12.0,25.0,10.0,3.0,1.0,1.0,2,10.0,10,1,1,1,1,0,1,0,1,0,0,0,80555.0
8.0,20.0,8.0,3.0,6.0,0.0,6,0.0,8,0,1,1,1,1,1,0,0,0,0,1,49076.0
2.0,5.0,10.0,5.0,5.0,2.0,9,8.0,6,1,1,0,1,1,1,0,0,0,0,1,191082.0
5.0,10.0,10.0,6.0,4.0,2.0,3,10.0,3,1,0,0,0,0,0,1,0,0,0,1,57999.0
3.0,7.0,3.0,5.0,4.0,0.0,6,1.0,7,1,0,0,1,1,0,1,0,0,0,1,32222.0
4.0,14.0,14.0,6.0,3.0,1.0,6,8.0,3,0,0,0,0,0,1,1,0,0,1,1,40814.0
2.0,8.0,2.0,6.0,2.0,0.0,7,2.0,4,0,1,1,0,0,0,0,0,0,1,1,35444.0
12.0,29.0,19.0,3.0,9.0,1.0,10,0.0,5,0,1,0,1,0,0,0,1,0,0,1,130000.0
2.0,10.0,2.0,5.0,5.0,2.0,6,0.0,3,0,0,0,1,1,0,0,0,0,0,0,47688.0
18.0,22.0,10.0,5.0,5.0,0.0,10,0.0,3,0,1,0,0,0,0,0,1,0,0,1,130000.0
9.0,12.0,13.0,5.0,4.0,1.0,6,2.0,3,0,1,1,0,0,0,0,0,0,0,1,108002.0
2.0,11.0,10.0,5.0,7.0,0.0,10,1.0,5,1,0,0,1,0,0,0,0,0,0,1,93000.0
12.0,20.0,12.0,2.0,3.0,2.0,6,1.0,2,1,0,0,1,0,0,0,0,0,0,1,70373.0
9.0,16.0,10.0,6.0,6.0,1.0,6,1.0,7,1,1,0,1,0,0,0,0,0,0,1,133700.0
20.0,26.0,10.0,5.0,7.0,0.0,6,4.0,6,1,1,0,1,0,0,0,0,0,1,1,80863.0
8.0,11.0,8.0,5.0,8.0,0.0,0,10.0,2,0,0,0,0,0,0,0,0,1,0,1,46622.0
4.0,6.0,5.0,5.0,4.0,0.0,6,3.0,5,1,0,0,1,0,1,0,0,0,0,1,63370.0
2.0,12.0,2.0,5.0,3.0,0.0,10,0.0,3,0,0,0,0,0,0,0,0,0,1,1,140000.0
27.0,40.0,30.0,3.0,2.0,1.0,6,0.0,8,1,1,1,1,0,1,1,1,0,0,0,48333.0
5.0,8.0,5.0,5.0,3.0,1.0,1,0.0,7,1,1,1,0,0,0,1,0,1,1,1,79962.0
8.0,10.0,8.0,5.0,2.0,1.0,6,0.0,8,0,1,1,1,1,0,0,0,0,0,1,144842.0
2.0,10.0,10.0,3.0,2.0,0.0,6,0.0,8,0,1,1,1,0,0,0,0,1,1,0,30074.0
17.0,25.0,20.0,5.0,6.0,0.0,9,0.0,5,0,1,1,1,0,0,0,0,0,0,1,82802.0
2.0,3.0,10.0,5.0,5.0,2.0,6,0.0,4,0,1,0,1,0,1,0,0,0,0,1,20075.0
18.0,21.0,18.0,5.0,5.0,0.0,6,4.0,9,1,1,1,1,0,0,0,1,1,0,1,79279.0
23.0,30.0,23.0,5.0,3.0,1.0,10,2.0,2,0,1,0,0,0,0,0,0,0,0,1,110000.0
20.0,20.0,10.0,6.0,1.0,0.0,6,0.0,6,1,1,1,0,1,0,0,0,0,0,1,60000.0
2.0,10.0,2.0,5.0,9.0,0.0,10,10.0,8,1,1,1,0,0,0,0,0,1,1,1,105000.0
2.0,6.0,3.0,6.0,9.0,1.0,10,0.0,10,1,1,1,1,1,0,1,0,0,0,1,98000.0
14.0,24.0,14.0,5.0,3.0,0.0,1,0.0,8,1,1,1,1,0,1,0,0,0,0,1,72693.0
11.0,18.0,11.0,3.0,8.0,0.0,10,1.0,5,1,0,0,1,0,0,0,0,0,1,1,260000.0
7.0,10.0,7.0,7.0,7.0,0.0,7,0.0,6,0,0,1,1,1,0,0,0,0,0,1,64981.0
7.0,14.0,7.0,5.0,7.0,0.0,6,4.0,4,1,0,0,1,1,0,0,0,0,0,1,81929.0
29.0,29.0,10.0,3.0,1.0,1.0,6,0.0,15,0,1,1,1,1,1,1,1,0,0,0,167125.0
8.0,20.0,10.0,3.0,3.0,1.0,3,1.0,11,1,0,0,0,1,1,1,0,1,0,1,80555.0
12.0,18.0,12.0,5.0,5.0,0.0,8,0.0,10,0,1,1,1,0,1,1,1,0,0,1,103672.0
6.0,10.0,6.0,6.0,3.0,0.0,10,3.0,3,1,0,0,1,0,0,0,0,0,0,1,185000.0
9.0,24.0,14.0,7.0,6.0,0.0,6,6.0,5,0,1,1,1,0,1,0,0,0,0,1,75994.0
18.0,20.0,18.0,7.0,5.0,1.0,6,10.0,3,1,0,0,0,0,0,1,0,0,0,1,64444.0
10.0,14.0,10.0,5.0,8.0,0.0,10,1.0,2,0,0,0,0,1,0,0,0,0,0,1,400000.0
20.0,24.0,20.0,5.0,8.0,1.0,9,0.0,6,0,1,1,1,0,1,0,0,0,0,1,110827.0
10.0,17.0,10.0,6.0,9.0,0.0,8,2.0,6,0,1,1,0,0,0,1,0,0,1,1,42000.0
8.0,16.0,8.0,6.0,2.0,2.0,3,10.0,11,1,1,0,1,0,1,0,1,0,0,1,75184.0
14.0,20.0,10.0,6.0,6.0,0.0,6,10.0,5,0,1,0,0,0,0,0,1,0,0,1,55236.0
16.0,18.0,16.0,5.0,5.0,2.0,4,0.0,5,0,1,1,1,1,0,0,0,0,0,1,59817.0
9.0,18.0,10.0,6.0,9.0,1.0,5,3.0,1,1,0,0,0,0,0,0,0,0,0,1,161109.0
8.0,12.0,8.0,6.0,9.0,2.0,9,10.0,8,1,0,0,0,0,0,0,0,0,1,1,89172.0
2.0,5.0,2.0,5.0,4.0,1.0,10,0.0,4,0,1,1,1,1,0,0,0,0,0,1,106000.0
4.0,6.0,4.0,5.0,4.0,1.0,6,0.0,9,1,1,0,1,0,1,0,1,0,1,1,34975.0
43.0,43.0,10.0,5.0,1.0,0.0,10,0.0,4,0,1,0,1,0,0,0,0,0,0,0,50000.0
9.0,14.0,9.0,6.0,4.0,1.0,6,0.0,3,0,0,1,0,0,0,0,0,1,1,1,57230.0
1.0,2.0,1.0,5.0,4.0,1.0,9,0.0,2,0,0,1,0,0,0,0,1,0,0,1,44586.0
1.0,2.0,10.0,3.0,4.0,1.0,1,0.0,4,0,1,0,1,0,0,0,1,0,0,1,38527.0
5.0,11.0,5.0,6.0,2.0,0.0,6,10.0,6,1,1,1,0,0,0,0,0,1,0,0,89172.0
13.0,25.0,13.0,3.0,7.0,1.0,6,6.0,8,0,1,1,0,0,1,0,0,1,0,1,118919.0
3.0,4.0,3.0,5.0,4.0,2.0,4,0.0,2,0,0,0,0,0,0,0,1,1,0,1,10767.0
1.0,6.0,10.0,5.0,6.0,0.0,9,0.0,4,1,1,0,0,1,0,0,0,0,0,1,48407.0
2.0,5.0,20.0,4.0,4.0,0.0,6,0.0,5,0,1,1,1,0,0,0,1,0,0,1,37592.0
17.0,22.0,15.0,7.0,9.0,2.0,9,10.0,5,1,1,0,1,0,0,0,0,0,0,1,382164.0
4.0,7.0,10.0,2.0,1.0,0.0,6,0.0,10,1,1,1,1,1,0,1,0,1,1,0,16111.0
11.0,14.0,12.0,2.0,4.0,1.0,6,0.0,7,0,1,1,0,1,0,0,0,0,0,1,85925.0
22.0,24.0,10.0,6.0,9.0,1.0,2,10.0,1,1,0,0,0,0,0,0,0,0,0,1,57999.0
6.0,7.0,13.0,5.0,5.0,1.0,10,0.0,2,0,1,0,0,0,0,0,0,0,0,1,150000.0
30.0,34.0,10.0,5.0,4.0,0.0,6,0.0,4,0,1,1,1,0,1,0,0,0,0,1,85886.0
8.0,12.0,10.0,2.0,7.0,1.0,3,8.0,8,1,0,0,1,1,0,1,0,1,0,1,64444.0
6.0,10.0,4.0,6.0,4.0,2.0,9,0.0,10,1,1,0,1,1,1,0,1,0,0,1,63694.0
8.0,9.0,8.0,3.0,5.0,0.0,6,7.0,1,0,0,0,0,0,0,0,0,0,0,1,42962.0
22.0,24.0,24.0,5.0,7.0,0.0,10,0.0,4,0,1,0,1,0,1,0,0,0,0,1,102000.0
9.0,21.0,10.0,6.0,7.0,1.0,10,10.0,5,1,0,0,0,0,1,1,0,0,1,1,167000.0
3.0,4.0,10.0,5.0,3.0,0.0,6,1.0,1,0,0,0,0,1,0,0,0,0,0,1,34645.0
7.0,9.0,7.0,3.0,2.0,0.0,6,0.0,3,0,1,1,0,0,0,0,0,0,0,1,47234.0
9.0,12.0,9.0,3.0,2.0,0.0,6,0.0,7,0,1,0,1,1,0,0,1,0,0,0,50000.0
1.0,6.0,10.0,5.0,5.0,1.0,8,0.0,6,0,1,1,1,0,1,1,0,0,0,1,14040.0
25.0,40.0,25.0,7.0,4.0,1.0,10,1.0,5,0,1,1,1,0,1,0,0,0,0,1,175000.0
25.0,30.0,10.0,6.0,3.0,0.0,8,0.0,5,0,1,0,1,1,1,1,0,0,0,1,40000.0
12.0,15.0,15.0,3.0,9.0,0.0,6,0.0,7,0,1,1,0,0,1,0,0,0,0,0,98986.0
8.0,19.0,10.0,6.0,9.0,1.0,9,10.0,5,1,0,0,0,0,0,0,0,1,0,1,127388.0
1.0,3.0,10.0,6.0,9.0,1.0,6,10.0,4,1,0,0,1,0,0,0,0,0,0,1,15577.0
3.0,7.0,3.0,5.0,4.0,1.0,10,9.0,9,1,1,0,0,0,1,1,1,0,0,1,66000.0
32.0,38.0,35.0,5.0,6.0,1.0,2,6.0,4,1,1,0,0,0,0,0,1,0,0,1,67666.0
15.0,17.0,15.0,6.0,4.0,0.0,3,8.0,1,0,0,0,0,0,0,1,0,0,0,0,107406.0
14.0,17.0,10.0,5.0,7.0,0.0,10,0.0,5,0,1,1,1,0,1,0,0,0,0,1,192000.0
3.0,9.0,3.0,5.0,9.0,0.0,10,10.0,6,1,0,1,0,0,1,0,0,0,1,1,130000.0
4.0,9.0,4.0,2.0,4.0,0.0,6,0.0,10,1,1,0,1,1,1,0,1,0,1,1,31148.0
10.0,13.0,10.0,5.0,5.0,0.0,0,1.0,8,1,1,1,1,1,0,1,0,0,0,1,27973.0
20.0,25.0,20.0,5.0,1.0,0.0,10,4.0,1,0,0,0,0,0,0,0,0,0,0,1,76500.0
21.0,25.0,21.0,2.0,4.0,0.0,10,9.0,3,1,0,0,0,0,0,0,0,1,0,1,175000.0
25.0,26.0,25.0,3.0,5.0,1.0,10,0.0,5,0,1,0,1,0,0,0,0,0,0,1,330572.0
13.0,20.0,13.0,6.0,4.0,0.0,10,0.0,8,1,1,1,1,0,0,0,1,1,0,1,175000.0
5.0,5.0,6.0,5.0,6.0,2.0,6,8.0,5,0,1,1,0,0,1,0,0,0,0,1,27487.0
8.0,14.0,8.0,5.0,4.0,2.0,6,0.0,11,0,1,1,1,1,1,1,1,0,0,1,54097.0
7.0,14.0,7.0,4.0,7.0,0.0,1,0.0,8,0,1,1,1,0,1,0,1,0,0,1,90139.0
3.0,4.0,3.0,5.0,5.0,0.0,6,0.0,6,1,1,1,1,0,1,0,0,0,0,1,42962.0
21.0,25.0,10.0,5.0,1.0,0.0,9,5.0,1,0,0,0,0,0,0,0,0,0,0,0,210190.0
5.0,20.0,9.0,7.0,3.0,1.0,5,9.0,5,1,1,0,0,0,0,1,0,0,1,1,64444.0
15.0,18.0,10.0,5.0,4.0,1.0,6,10.0,3,1,1,0,0,1,0,0,0,0,0,1,161905.0
4.0,9.0,5.0,6.0,7.0,1.0,6,0.0,8,1,1,1,1,0,0,0,0,0,0,1,38666.0
0.0,2.0,2.0,5.0,5.0,2.0,3,2.0,6,1,1,0,0,0,0,0,0,0,0,1,59073.0
38.0,45.0,10.0,2.0,4.0,0.0,6,8.0,3,0,0,0,1,0,0,0,0,0,0,1,172802.0
5.0,8.0,5.0,2.0,3.0,0.0,10,0.0,6,1,1,1,0,0,0,1,0,0,1,0,120000.0
11.0,13.0,13.0,5.0,7.0,2.0,6,8.0,3,0,0,0,1,0,1,1,0,0,0,1,64444.0
5.0,6.0,5.0,2.0,4.0,1.0,6,1.0,4,1,0,1,0,0,0,0,0,1,0,1,48333.0
6.0,14.0,6.0,5.0,6.0,0.0,9,1.0,2,1,0,0,0,1,0,0,0,0,0,1,107006.0
15.0,25.0,10.0,5.0,6.0,0.0,1,4.0,6,1,1,0,1,0,0,0,0,0,0,1,254425.0
5.0,7.0,7.0,6.0,9.0,1.0,6,10.0,7,1,1,0,1,0,0,0,1,0,0,1,66592.0
3.0,10.0,4.0,5.0,7.0,0.0,8,5.0,4,1,0,0,1,0,0,0,0,0,0,1,32089.0
5.0,9.0,7.0,6.0,7.0,1.0,2,7.0,15,1,1,1,0,1,1,1,1,0,0,1,74110.0
7.0,10.0,7.0,5.0,8.0,0.0,9,1.0,4,0,1,1,1,0,0,0,0,0,0,1,165604.0
9.0,10.0,9.0,6.0,8.0,1.0,8,1.0,5,0,1,1,1,0,0,0,0,0,0,1,66000.0
4.0,9.0,4.0,6.0,4.0,0.0,4,10.0,6,1,1,1,0,0,0,0,0,0,0,1,113653.0
5.0,7.0,5.0,2.0,7.0,0.0,6,0.0,6,0,1,1,0,1,0,0,0,0,0,1,56086.0
10.0,15.0,10.0,5.0,3.0,0.0,0,0.0,3,1,0,0,0,0,0,0,0,0,0,1,15273.0
12.0,12.0,17.0,2.0,5.0,0.0,6,1.0,2,0,0,1,0,0,0,0,0,1,0,1,69496.0
4.0,10.0,16.0,5.0,5.0,2.0,6,10.0,5,0,0,0,1,0,1,0,1,0,0,1,14623.0
8.0,16.0,10.0,7.0,8.0,2.0,6,10.0,2,1,0,0,0,0,0,0,0,0,0,1,111417.0
10.0,20.0,10.0,5.0,5.0,1.0,6,1.0,11,1,1,1,1,0,0,0,1,1,1,1,132132.0
2.0,7.0,2.0,2.0,5.0,1.0,6,0.0,3,0,1,0,0,0,0,0,0,0,0,1,16143.0
7.0,8.0,10.0,1.0,3.0,0.0,10,10.0,7,1,1,1,1,0,0,0,0,0,1,0,220000.0
2.0,7.0,4.0,6.0,2.0,0.0,2,1.0,7,1,0,0,0,0,0,1,1,0,0,1,32222.0
4.0,13.0,10.0,5.0,4.0,0.0,1,0.0,5,0,0,1,1,0,0,0,0,0,0,1,58154.0
11.0,15.0,11.0,6.0,6.0,0.0,6,0.0,5,1,1,1,0,0,0,0,0,0,0,1,83777.0
31.0,38.0,31.0,5.0,2.0,0.0,9,0.0,4,0,1,0,1,0,1,0,0,0,0,1,47134.0
3.0,6.0,10.0,7.0,7.0,1.0,0,10.0,6,1,1,1,0,0,0,0,0,1,1,1,74595.0
15.0,17.0,15.0,5.0,5.0,0.0,3,1.0,4,0,1,0,1,0,0,0,1,0,0,1,63370.0
20.0,23.0,23.0,5.0,2.0,0.0,6,10.0,6,1,1,1,1,0,1,0,0,0,0,0,150000.0
2.0,4.0,2.0,3.0,9.0,2.0,10,8.0,5,1,0,1,0,0,0,0,0,1,0,0,17606.0
35.0,15.0,35.0,7.0,7.0,1.0,9,10.0,9,1,0,0,1,1,0,1,0,0,1,1,56051.0
2.0,1.0,10.0,2.0,4.0,2.0,6,1.0,2,1,0,0,0,0,0,0,0,1,0,1,22555.0
0.0,2.0,10.0,3.0,5.0,2.0,2,0.0,7,1,1,1,0,1,0,0,1,0,0,0,23200.0
4.0,11.0,4.0,5.0,7.0,1.0,3,1.0,6,1,0,0,1,1,0,1,0,0,0,1,75184.0
4.0,11.0,4.0,6.0,5.0,0.0,9,2.0,4,1,1,1,0,0,0,0,0,0,0,1,78980.0
7.0,15.0,10.0,5.0,4.0,0.0,8,1.0,6,0,1,0,1,0,1,1,0,0,0,1,19179.0
10.0,12.0,10.0,3.0,1.0,0.0,10,1.0,10,0,1,1,1,1,0,0,1,0,0,0,45000.0
6.0,8.0,6.0,5.0,7.0,0.0,1,0.0,9,1,1,1,1,0,1,0,0,0,1,1,53066.0
23.0,23.0,22.0,5.0,5.0,1.0,6,10.0,4,0,0,0,1,0,0,0,1,0,0,0,134258.0
20.0,25.0,20.0,5.0,9.0,0.0,10,1.0,4,0,0,1,1,1,0,0,0,0,0,1,400000.0
22.0,22.0,22.0,5.0,1.0,2.0,0,0.0,5,0,1,1,0,0,0,1,0,0,0,1,44757.0
6.0,10.0,6.0,5.0,3.0,0.0,4,2.0,4,1,1,1,0,0,0,0,0,0,0,1,35890.0
5.0,9.0,5.0,3.0,3.0,1.0,6,10.0,14,1,1,1,1,1,1,1,0,1,1,0,14848.0
15.0,20.0,17.0,6.0,5.0,2.0,6,0.0,5,0,1,1,1,0,0,0,1,0,0,1,42489.0
4.0,10.0,4.0,2.0,7.0,0.0,10,10.0,4,1,1,1,0,0,0,0,0,0,0,1,180000.0
1.0,15.0,1.0,3.0,4.0,1.0,3,8.0,7,1,1,0,1,1,0,0,0,0,0,1,32222.0
4.0,8.0,4.0,5.0,9.0,1.0,6,0.0,8,1,1,0,1,0,1,0,0,0,1,1,30914.0
39.0,43.0,10.0,7.0,7.0,1.0,6,10.0,1,1,0,0,0,0,0,0,0,0,0,1,53703.0
6.0,8.0,6.0,5.0,4.0,2.0,6,1.0,6,1,1,0,1,0,0,0,1,0,0,1,27817.0
10.0,14.0,10.0,5.0,4.0,2.0,6,8.0,2,1,0,0,0,0,1,0,0,0,0,1,38442.0
9.0,12.0,9.0,5.0,7.0,1.0,1,10.0,3,1,0,0,0,0,0,1,0,0,1,1,105405.0
2.0,5.0,10.0,5.0,5.0,1.0,3,9.0,7,1,1,1,1,0,0,1,0,0,0,0,16111.0
5.0,6.0,10.0,7.0,9.0,0.0,8,1.0,4,0,0,1,1,1,0,0,0,0,0,1,60000.0
6.0,7.0,7.0,3.0,4.0,0.0,10,1.0,5,1,1,0,1,1,0,0,0,0,0,1,125000.0
21.0,24.0,10.0,6.0,7.0,0.0,9,0.0,3,1,0,0,0,0,0,0,0,0,0,0,225222.0
4.0,8.0,6.0,5.0,9.0,0.0,9,0.0,8,1,1,1,1,0,0,0,0,0,0,1,81528.0
12.0,18.0,12.0,5.0,4.0,1.0,10,0.0,9,1,1,1,1,0,1,0,0,0,1,1,97000.0
7.0,10.0,7.0,5.0,4.0,1.0,6,0.0,11,0,1,1,1,1,1,0,1,0,0,1,61457.0
13.0,15.0,13.0,6.0,4.0,1.0,6,10.0,7,1,1,1,0,0,0,1,0,0,0,1,91000.0
3.0,12.0,10.0,7.0,2.0,1.0,1,10.0,4,1,0,0,1,0,0,0,0,0,0,1,101770.0
10.0,18.0,10.0,6.0,4.0,0.0,3,1.0,1,0,0,0,0,0,0,0,0,0,0,0,73036.0
11.0,16.0,11.0,3.0,2.0,2.0,5,5.0,5,0,1,1,1,0,1,0,0,0,0,1,77332.0
12.0,16.0,12.0,6.0,2.0,1.0,9,0.0,12,1,1,0,1,0,1,1,0,1,1,1,95541.0
10.0,15.0,10.0,6.0,5.0,0.0,6,7.0,8,1,0,0,1,1,0,0,0,0,0,1,54777.0
1.0,7.0,2.0,6.0,7.0,1.0,6,1.0,2,1,0,0,0,1,0,0,0,0,0,1,105846.0
11.0,14.0,11.0,6.0,5.0,1.0,2,10.0,10,1,1,1,1,1,0,0,0,0,1,1,75184.0
10.0,12.0,12.0,5.0,4.0,0.0,4,0.0,3,0,1,1,0,0,0,0,0,0,0,1,95708.0
11.0,13.0,8.0,5.0,4.0,0.0,10,7.0,1,0,0,0,0,0,0,0,0,0,0,1,160000.0
5.0,7.0,10.0,6.0,5.0,0.0,8,1.0,3,0,1,0,1,0,0,0,1,0,0,1,43000.0
16.0,20.0,10.0,7.0,4.0,1.0,6,8.0,4,1,0,0,1,0,0,1,0,0,0,1,59391.0
26.0,26.0,26.0,4.0,5.0,2.0,10,0.0,9,1,1,1,1,1,1,0,0,0,0,1,105000.0
14.0,22.0,14.0,6.0,6.0,1.0,6,1.0,6,0,0,0,1,0,1,1,0,0,0,1,47018.0
40.0,40.0,10.0,3.0,7.0,1.0,9,0.0,3,0,1,1,0,0,1,0,0,0,0,1,127388.0
6.0,12.0,6.0,6.0,7.0,0.0,3,1.0,3,1,0,0,0,1,0,0,0,1,0,1,82703.0
0.0,4.0,0.0,2.0,9.0,1.0,3,2.0,11,1,1,1,1,1,0,0,0,1,0,0,23200.0
3.0,9.0,3.0,5.0,4.0,2.0,3,0.0,5,0,1,1,0,1,0,0,0,0,0,1,45111.0
5.0,10.0,5.0,5.0,7.0,0.0,9,4.0,4,1,1,1,0,1,0,0,0,0,0,1,56051.0
12.0,15.0,12.0,6.0,3.0,0.0,2,0.0,8,1,1,1,0,1,0,0,1,0,0,1,75184.0
12.0,15.0,10.0,5.0,7.0,0.0,2,1.0,7,1,1,0,0,0,0,0,1,1,0,1,42962.0
8.0,11.0,10.0,6.0,4.0,1.0,5,4.0,4,1,0,0,1,0,0,1,0,0,0,1,182591.0
25.0,33.0,25.0,6.0,9.0,2.0,6,9.0,6,1,0,0,0,0,0,0,0,0,0,1,91295.0
8.0,10.0,9.0,5.0,2.0,2.0,5,4.0,6,1,1,1,1,0,0,0,1,0,0,1,51555.0
5.0,11.0,10.0,7.0,9.0,1.0,2,10.0,5,1,0,0,0,1,0,1,0,0,0,1,64444.0
16.0,25.0,26.0,6.0,7.0,1.0,2,0.0,9,0,1,1,1,1,1,0,0,0,0,1,133700.0
0.0,5.0,1.0,2.0,9.0,1.0,3,10.0,13,1,1,1,1,1,1,0,1,0,1,0,21052.0
5.0,15.0,5.0,5.0,2.0,1.0,6,0.0,10,1,1,1,0,0,0,0,1,0,0,1,12000.0
3.0,7.0,9.0,7.0,4.0,2.0,6,10.0,1,1,0,0,0,0,0,0,0,0,0,1,85925.0
2.0,6.0,2.0,5.0,7.0,1.0,6,1.0,1,1,0,0,0,0,0,0,0,0,0,1,29696.0
6.0,11.0,6.0,5.0,4.0,0.0,5,0.0,4,0,1,0,0,1,0,1,0,0,0,1,53703.0
9.0,12.0,9.0,5.0,7.0,1.0,6,7.0,1,0,0,0,0,0,0,0,0,0,0,1,138739.0
36.0,45.0,36.0,6.0,7.0,0.0,10,1.0,7,1,1,0,1,1,0,0,0,0,0,1,136100.0
7.0,12.0,7.0,6.0,6.0,0.0,6,2.0,3,0,1,0,0,0,0,0,0,0,0,1,117741.0
10.0,20.0,10.0,6.0,4.0,1.0,3,1.0,5,0,1,1,0,1,0,0,0,1,0,1,75184.0
4.0,7.0,4.0,5.0,7.0,1.0,10,10.0,10,1,1,0,1,1,0,0,1,0,1,1,91000.0
10.0,12.0,14.0,3.0,4.0,0.0,10,0.0,8,0,1,1,0,0,0,0,0,0,1,1,182000.0
3.0,5.0,10.0,5.0,5.0,2.0,10,0.0,2,0,1,0,0,0,0,0,0,0,0,1,100000.0
16.0,20.0,16.0,5.0,7.0,1.0,10,10.0,7,1,1,1,1,0,1,0,0,0,0,1,150000.0
14.0,19.0,13.0,5.0,2.0,0.0,10,0.0,3,0,0,0,1,1,0,0,0,0,0,0,275000.0
5.0,15.0,10.0,3.0,1.0,0.0,6,7.0,5,1,0,0,1,0,0,0,0,1,0,0,20000.0
15.0,30.0,15.0,6.0,3.0,2.0,6,1.0,1,0,0,0,0,0,0,0,0,0,0,1,74239.0
20.0,25.0,25.0,6.0,6.0,0.0,6,0.0,9,1,1,1,0,1,0,0,0,0,0,1,91213.0
17.0,22.0,17.0,5.0,5.0,1.0,0,1.0,5,0,1,0,1,0,1,0,1,0,0,1,22378.0
28.0,34.0,10.0,6.0,1.0,0.0,9,0.0,15,0,1,1,1,1,1,1,0,0,0,0,191082.0
25.0,30.0,25.0,6.0,4.0,1.0,6,10.0,9,0,1,1,1,0,1,1,1,0,0,0,55000.0
12.0,14.0,15.0,3.0,8.0,0.0,10,8.0,5,0,1,0,1,0,1,0,0,0,0,1,90000.0
14.0,16.0,14.0,6.0,2.0,0.0,8,0.0,7,1,1,0,1,0,1,0,1,0,0,1,53703.0
20.0,35.0,10.0,6.0,7.0,1.0,6,0.0,2,0,0,0,0,0,0,0,0,0,0,1,112309.0
5.0,8.0,5.0,3.0,4.0,0.0,8,1.0,1,0,0,0,0,0,0,0,0,1,0,1,66000.0
4.0,6.0,4.0,5.0,4.0,0.0,4,1.0,4,1,0,0,1,1,0,0,0,0,0,1,33498.0
38.0,43.0,33.0,7.0,7.0,2.0,3,10.0,1,1,0,0,0,0,0,0,0,0,0,1,107406.0
20.0,25.0,10.0,5.0,2.0,1.0,6,8.0,4,0,1,0,0,0,1,0,0,0,0,1,69121.0
17.0,22.0,17.0,6.0,5.0,0.0,8,0.0,4,0,1,1,1,0,0,0,0,0,0,1,66795.0
10.0,17.0,10.0,6.0,5.0,0.0,10,1.0,4,0,1,0,0,0,1,0,1,0,0,1,98000.0
2.0,10.0,4.0,5.0,7.0,1.0,9,0.0,4,1,1,0,0,0,1,0,0,0,0,1,52356.0
32.0,36.0,32.0,5.0,5.0,0.0,9,0.0,6,0,1,0,0,0,1,1,0,0,0,1,216559.0
22.0,30.0,10.0,6.0,5.0,1.0,6,1.0,12,1,1,0,1,1,0,1,0,1,0,1,217811.0
5.0,7.0,10.0,5.0,6.0,1.0,10,8.0,5,1,0,0,1,1,0,0,0,0,0,1,93000.0
10.0,11.0,10.0,4.0,3.0,0.0,6,1.0,6,0,1,1,1,0,0,0,0,0,0,1,74239.0
4.0,5.0,10.0,6.0,5.0,0.0,6,0.0,5,1,1,0,1,0,0,0,0,0,0,1,53703.0
6.0,18.0,10.0,2.0,4.0,1.0,6,5.0,7,1,0,1,1,0,0,0,0,1,1,1,69153.0
2.0,7.0,2.0,5.0,9.0,1.0,10,0.0,7,1,1,1,1,1,0,0,0,0,1,1,95000.0
19.0,20.0,20.0,5.0,4.0,0.0,6,6.0,3,0,1,0,0,0,0,0,0,0,0,1,136105.0
8.0,10.0,10.0,6.0,7.0,2.0,6,2.0,2,0,1,1,0,0,0,0,0,0,0,1,17479.0
13.0,21.0,10.0,5.0,5.0,0.0,10,0.0,4,0,1,1,1,0,0,0,0,0,0,1,200000.0
14.0,26.0,14.0,5.0,3.0,1.0,3,0.0,2,0,0,1,0,0,0,0,0,0,0,1,75184.0
15.0,20.0,10.0,6.0,4.0,1.0,3,0.0,3,0,1,1,0,0,0,0,0,0,0,1,154665.0
5.0,6.0,18.0,5.0,5.0,1.0,9,0.0,3,0,1,1,0,0,0,0,0,0,0,1,68153.0
10.0,16.0,10.0,6.0,4.0,0.0,6,0.0,6,0,1,1,1,0,1,0,0,0,0,1,32954.0
3.0,7.0,10.0,2.0,6.0,0.0,6,2.0,9,1,1,1,1,1,1,1,0,0,0,1,21640.0
16.0,21.0,10.0,6.0,6.0,2.0,2,0.0,6,1,1,0,1,0,0,0,1,0,0,1,47259.0
12.0,24.0,12.0,5.0,5.0,0.0,10,0.0,8,1,1,1,1,0,0,0,1,1,0,1,150000.0
2.0,6.0,2.0,5.0,5.0,2.0,6,8.0,1,0,0,0,0,0,0,1,0,0,0,1,25241.0
7.0,13.0,20.0,2.0,2.0,1.0,6,7.0,8,0,1,1,0,0,0,0,0,0,0,1,53703.0
5.0,6.0,5.0,5.0,3.0,0.0,6,0.0,7,1,1,1,1,1,0,0,0,0,0,1,53000.0
5.0,5.0,5.0,6.0,5.0,1.0,6,0.0,6,0,1,1,1,0,1,0,0,0,0,1,25777.0
5.0,10.0,10.0,6.0,5.0,0.0,2,2.0,5,1,1,1,0,0,0,0,0,0,0,1,69814.0
15.0,20.0,10.0,5.0,4.0,1.0,2,7.0,5,1,0,0,1,0,1,0,0,0,0,1,64444.0
2.0,8.0,2.0,6.0,7.0,1.0,2,0.0,7,1,1,1,1,1,0,0,0,0,1,1,23629.0
5.0,6.0,5.0,2.0,5.0,2.0,6,0.0,4,1,1,0,1,0,0,0,0,0,0,1,38857.0
10.0,22.0,18.0,6.0,9.0,2.0,10,1.0,4,1,0,0,0,0,0,1,0,1,0,1,173000.0
12.0,20.0,10.0,3.0,6.0,1.0,10,10.0,4,1,0,0,1,0,0,0,0,1,0,1,250000.0
7.0,10.0,7.0,2.0,7.0,1.0,10,5.0,2,1,0,0,0,0,0,0,0,0,0,1,120000.0
5.0,10.0,5.0,6.0,7.0,1.0,3,10.0,3,0,1,0,0,0,0,0,0,0,0,1,48333.0
3.0,6.0,10.0,2.0,5.0,1.0,7,0.0,3,0,1,0,1,0,1,0,0,0,0,1,32222.0
6.0,10.0,6.0,5.0,2.0,1.0,3,2.0,8,1,1,1,1,0,0,0,0,0,1,1,69814.0
9.0,10.0,10.0,6.0,7.0,0.0,8,7.0,6,1,1,1,0,1,0,0,0,1,0,1,165000.0
13.0,20.0,20.0,5.0,4.0,0.0,10,0.0,2,0,0,1,0,0,1,0,0,0,0,1,135000.0
5.0,6.0,5.0,5.0,6.0,0.0,6,7.0,1,0,0,0,0,0,0,0,0,0,0,1,18399.0
3.0,9.0,3.0,6.0,4.0,0.0,8,2.0,3,0,1,1,0,0,0,0,0,0,0,1,19333.0
5.0,8.0,10.0,6.0,4.0,0.0,10,0.0,3,0,1,0,1,0,0,0,0,0,0,1,73000.0
14.0,16.0,16.0,3.0,5.0,1.0,0,1.0,5,0,1,0,1,0,1,0,0,0,0,1,33568.0
4.0,11.0,10.0,3.0,9.0,0.0,6,5.0,2,1,0,0,0,0,0,0,0,0,0,1,107406.0
4.0,15.0,6.0,5.0,3.0,1.0,10,0.0,7,1,0,1,1,0,0,0,0,1,1,1,80000.0
7.0,7.0,7.0,6.0,6.0,1.0,5,1.0,7,0,1,1,1,0,1,0,0,0,0,1,91295.0
8.0,12.0,7.0,6.0,5.0,1.0,3,0.0,4,0,1,0,1,0,0,0,1,0,0,1,53703.0
16.0,20.0,16.0,6.0,6.0,1.0,10,0.0,6,1,1,1,1,0,0,0,0,0,0,1,215000.0
2.0,4.0,3.0,2.0,2.0,1.0,6,0.0,4,0,1,0,1,0,0,0,1,0,0,1,25777.0
5.0,8.0,11.0,3.0,7.0,1.0,5,5.0,4,1,0,1,0,0,0,0,0,0,1,1,66592.0
