YearsCodePro_n,YearsCode_n,WorkExp_n,EdLevel_n,OrgSize_n,Remote_n,Country_n,DevType_n,lang_count,lang_Python,lang_JavaScript,lang_TypeScript,lang_SQL,lang_Java,lang_CSharp,lang_CPlusPlus,lang_PHP,lang_Go,lang_Rust,IsFullTime,ConvertedCompYearly
5.0,13.0,5.0,5.0,2.0,1.0,6,0.0,21,1,1,1,1,1,1,1,1,0,0,1,13669.0
12.0,16.0,19.0,6.0,4.0,2.0,6,6.0,4,1,0,0,1,0,0,0,0,0,0,1,85925.0
18.0,22.0,18.0,5.0,5.0,0.0,10,0.0,5,0,1,1,1,0,1,0,0,0,0,1,190000.0
7.0,16.0,7.0,6.0,4.0,1.0,6,0.0,4,0,0,1,0,0,1,0,0,0,0,1,63380.0
6.0,13.0,10.0,2.0,4.0,0.0,6,1.0,6,0,1,0,1,0,1,1,1,0,0,1,24458.0
20.0,25.0,20.0,2.0,4.0,0.0,6,8.0,1,0,0,0,0,0,0,0,0,0,0,1,37592.0
6.0,12.0,6.0,3.0,7.0,0.0,7,1.0,6,0,0,0,1,1,0,1,0,1,1,1,40814.0
10.0,15.0,10.0,6.0,3.0,0.0,8,0.0,5,1,1,0,1,0,0,0,1,0,0,1,140000.0
6.0,9.0,6.0,3.0,4.0,1.0,6,5.0,9,1,1,1,1,1,0,0,0,1,1,1,29692.0
2.0,8.0,10.0,2.0,4.0,2.0,2,8.0,10,1,1,1,0,0,1,1,0,0,0,1,42962.0
1.0,18.0,10.0,5.0,2.0,1.0,3,8.0,6,1,0,0,1,1,0,0,0,0,0,1,45111.0
4.0,12.0,11.0,6.0,9.0,0.0,7,1.0,3,0,0,1,0,1,0,0,0,0,0,1,47259.0
8.0,8.0,6.0,5.0,2.0,1.0,6,2.0,8,1,1,1,1,0,0,0,1,0,0,0,16111.0
2.0,4.0,10.0,6.0,4.0,0.0,1,2.0,4,0,1,1,1,0,0,0,0,0,0,1,116309.0
4.0,8.0,5.0,5.0,5.0,0.0,9,7.0,1,0,0,0,0,0,0,0,0,0,0,1,67516.0
9.0,11.0,9.0,5.0,2.0,1.0,10,8.0,3,0,0,0,1,0,1,1,0,0,0,1,100000.0
11.0,12.0,10.0,6.0,4.0,0.0,6,0.0,6,0,1,0,0,0,0,0,1,0,0,1,48998.0
13.0,18.0,13.0,6.0,5.0,1.0,3,10.0,2,1,0,0,0,0,0,0,0,0,0,0,107406.0
19.0,25.0,10.0,6.0,4.0,1.0,1,10.0,2,0,1,0,0,0,0,0,0,0,0,1,159924.0
10.0,11.0,10.0,5.0,5.0,1.0,6,0.0,9,1,1,1,1,0,1,0,0,0,0,1,72673.0
16.0,25.0,10.0,7.0,7.0,1.0,3,1.0,6,0,1,1,1,1,0,0,0,0,0,1,78407.0
2.0,7.0,10.0,6.0,7.0,1.0,4,3.0,1,1,0,0,0,0,0,0,0,0,0,1,33498.0
10.0,17.0,10.0,5.0,4.0,0.0,10,0.0,10,0,1,1,1,0,1,0,0,0,1,1,195000.0
14.0,21.0,13.0,6.0,2.0,0.0,6,0.0,6,1,1,0,1,1,1,0,1,0,0,0,31148.0
4.0,6.0,10.0,5.0,7.0,1.0,10,0.0,7,0,1,1,1,0,1,0,0,0,0,1,107000.0
8.0,15.0,8.0,5.0,3.0,2.0,6,1.0,4,1,0,1,0,0,0,0,0,1,1,1,155429.0
12.0,17.0,12.0,6.0,5.0,0.0,3,1.0,3,0,0,0,1,1,0,0,0,0,0,1,85925.0
10.0,20.0,10.0,6.0,5.0,1.0,10,8.0,8,0,0,1,1,0,1,1,0,0,0,1,120000.0
4.0,8.0,4.0,5.0,8.0,1.0,6,0.0,5,1,1,1,0,1,0,0,0,0,0,1,53757.0
16.0,19.0,19.0,6.0,9.0,1.0,4,8.0,3,0,1,1,0,0,1,0,0,0,0,1,59817.0
7.0,7.0,10.0,3.0,7.0,1.0,6,4.0,2,1,0,1,0,0,0,0,0,0,0,1,53205.0
6.0,7.0,7.0,5.0,4.0,2.0,6,0.0,4,0,1,1,0,0,0,0,1,0,0,1,38240.0
25.0,30.0,30.0,3.0,5.0,1.0,0,0.0,5,0,1,0,0,0,0,0,1,0,0,1,44757.0
4.0,12.0,10.0,5.0,8.0,1.0,10,0.0,8,1,1,1,0,0,0,1,0,0,0,1,130000.0
10.0,14.0,9.0,5.0,6.0,1.0,4,1.0,4,0,0,0,1,1,0,0,0,0,1,1,41872.0
10.0,29.0,10.0,7.0,1.0,0.0,6,10.0,1,0,0,0,0,0,0,0,0,0,0,0,53480.0
20.0,24.0,22.0,6.0,3.0,1.0,10,0.0,9,1,1,1,1,1,1,0,0,1,0,0,180000.0
5.0,7.0,5.0,5.0,4.0,2.0,6,0.0,5,0,0,0,1,0,1,0,0,0,0,1,99099.0
5.0,7.0,5.0,5.0,5.0,1.0,3,2.0,3,0,1,1,0,0,0,0,0,0,0,1,69170.0
4.0,5.0,10.0,6.0,4.0,0.0,3,2.0,3,0,1,1,0,0,0,0,0,0,0,1,64444.0
6.0,10.0,10.0,5.0,4.0,0.0,6,10.0,5,0,1,0,0,0,0,0,1,0,0,0,60000.0
12.0,20.0,12.0,5.0,6.0,0.0,1,0.0,6,1,1,0,1,0,0,0,1,0,0,1,66877.0
24.0,26.0,23.0,4.0,2.0,1.0,6,10.0,15,1,1,1,1,1,1,1,0,1,1,1,206962.0
31.0,35.0,35.0,5.0,5.0,1.0,6,0.0,5,0,1,0,1,0,1,0,0,0,0,0,79894.0
4.0,12.0,10.0,5.0,9.0,0.0,10,10.0,1,0,0,0,0,0,0,0,0,0,0,1,200000.0
24.0,27.0,25.0,5.0,2.0,1.0,10,0.0,8,1,1,1,1,0,1,0,0,0,0,1,190000.0
9.0,11.0,7.0,3.0,8.0,1.0,6,2.0,7,0,1,1,0,0,1,0,0,1,0,1,96748.0
14.0,20.0,14.0,3.0,4.0,1.0,6,1.0,9,1,1,1,1,0,1,0,0,0,1,1,60092.0
18.0,21.0,10.0,5.0,3.0,0.0,3,1.0,4,1,1,0,0,0,0,0,0,0,0,0,58322.0
15.0,15.0,10.0,6.0,4.0,2.0,4,0.0,6,0,1,1,1,0,1,0,1,0,0,1,35890.0
0.0,7.0,10.0,5.0,9.0,2.0,10,5.0,10,1,1,0,1,1,0,0,1,1,1,1,100000.0
13.0,15.0,10.0,6.0,9.0,0.0,6,10.0,1,0,0,0,0,0,0,1,0,0,0,0,123517.0
6.0,8.0,6.0,6.0,5.0,1.0,6,1.0,6,0,0,0,1,1,0,0,0,0,0,0,74110.0
9.0,17.0,7.0,7.0,8.0,1.0,9,10.0,3,1,0,0,0,1,0,0,0,0,0,1,57325.0
15.0,19.0,10.0,1.0,6.0,1.0,6,10.0,8,1,1,1,0,0,1,1,0,0,0,1,134921.0
5.0,7.0,5.0,1.0,3.0,1.0,6,6.0,6,0,1,1,1,0,0,0,1,0,0,1,118919.0
5.0,10.0,5.0,5.0,5.0,1.0,5,1.0,5,0,1,1,1,1,0,0,0,0,0,1,60147.0
7.0,9.0,7.0,5.0,9.0,1.0,9,7.0,5,0,0,1,0,0,0,0,0,0,0,1,99363.0
6.0,20.0,6.0,3.0,5.0,0.0,6,0.0,5,1,1,1,1,1,0,0,0,0,0,0,12146.0
7.0,8.0,7.0,3.0,4.0,0.0,0,0.0,6,0,1,1,1,0,0,0,1,0,0,1,28533.0
18.0,24.0,18.0,5.0,4.0,0.0,10,1.0,4,0,0,0,1,0,1,0,0,0,0,1,170000.0
8.0,10.0,8.0,5.0,5.0,1.0,2,2.0,4,0,1,1,0,0,0,0,0,0,0,1,52771.0
6.0,10.0,10.0,5.0,9.0,1.0,10,8.0,9,0,1,0,0,0,0,1,0,0,1,1,330000.0
5.0,8.0,10.0,6.0,1.0,0.0,10,1.0,8,1,1,1,1,0,0,0,0,1,1,0,180000.0
4.0,7.0,4.0,3.0,4.0,0.0,6,7.0,1,0,0,0,0,0,0,0,0,0,0,1,62954.0
1.0,8.0,10.0,2.0,1.0,2.0,3,7.0,11,1,1,1,1,1,0,1,1,0,1,0,22555.0
8.0,10.0,10.0,6.0,4.0,0.0,8,10.0,4,0,1,1,1,0,0,0,0,0,0,1,110000.0
3.0,5.0,10.0,5.0,4.0,0.0,6,10.0,1,0,0,0,0,0,1,0,0,0,0,1,55370.0
13.0,15.0,15.0,1.0,7.0,1.0,6,10.0,3,0,0,0,1,0,1,0,0,0,0,1,42488.0
3.0,16.0,3.0,2.0,4.0,2.0,6,0.0,3,0,1,0,1,0,0,0,0,0,0,1,21717.0
32.0,38.0,10.0,7.0,9.0,2.0,2,10.0,2,1,0,0,1,0,0,0,0,0,0,1,76328.0
8.0,11.0,7.0,6.0,9.0,1.0,2,1.0,1,0,0,0,0,0,0,0,0,0,0,0,171850.0
2.0,6.0,2.0,5.0,2.0,1.0,6,0.0,4,0,0,1,0,0,0,0,0,1,0,1,15359.0
28.0,40.0,10.0,6.0,2.0,1.0,5,0.0,6,1,1,0,1,1,0,0,0,0,0,1,128887.0
25.0,30.0,10.0,3.0,1.0,1.0,6,10.0,19,1,1,1,1,1,0,1,1,1,0,0,10084.0
8.0,8.0,10.0,6.0,9.0,1.0,7,10.0,3,0,1,0,1,0,0,0,0,0,0,1,42425.0
5.0,8.0,5.0,2.0,3.0,0.0,6,0.0,5,1,1,1,0,0,0,0,0,0,0,1,23529.0
5.0,10.0,5.0,5.0,5.0,2.0,6,0.0,4,1,1,1,0,0,0,0,0,0,0,1,10922.0
26.0,30.0,27.0,5.0,8.0,1.0,6,10.0,7,1,0,1,1,1,1,1,0,0,0,1,95384.0
24.0,27.0,25.0,5.0,9.0,0.0,10,10.0,8,1,1,0,1,1,0,0,0,0,0,1,250000.0
5.0,8.0,6.0,6.0,7.0,1.0,3,1.0,3,1,0,0,1,0,0,0,0,1,0,1,77332.0
25.0,25.0,25.0,3.0,5.0,0.0,9,1.0,1,0,0,0,0,0,1,0,0,0,0,1,152865.0
4.0,5.0,5.0,5.0,3.0,1.0,7,2.0,2,0,1,0,0,0,0,0,0,0,0,1,64444.0
9.0,9.0,10.0,5.0,1.0,0.0,6,7.0,4,0,1,1,0,1,0,0,0,0,0,0,36000.0
17.0,21.0,17.0,5.0,4.0,0.0,6,2.0,3,0,1,1,0,0,0,0,0,0,0,1,77332.0
7.0,12.0,10.0,6.0,4.0,0.0,6,1.0,2,0,1,0,0,0,0,0,0,0,0,1,11040.0
5.0,9.0,5.0,5.0,8.0,0.0,10,8.0,3,0,0,0,0,0,0,1,0,0,0,1,250000.0
25.0,28.0,25.0,5.0,5.0,0.0,1,0.0,9,1,1,1,1,1,1,0,0,0,0,1,218079.0
2.0,10.0,2.0,5.0,7.0,1.0,6,10.0,5,1,0,0,0,0,0,1,0,0,1,1,25996.0
5.0,9.0,5.0,5.0,6.0,2.0,8,0.0,9,0,1,0,1,1,1,0,1,0,0,1,45000.0
9.0,19.0,12.0,7.0,3.0,1.0,10,10.0,11,1,1,0,0,1,0,1,0,1,0,1,100000.0
14.0,15.0,15.0,3.0,7.0,0.0,6,7.0,6,1,1,1,0,1,0,0,0,0,0,1,84851.0
11.0,15.0,11.0,6.0,9.0,1.0,9,1.0,7,1,0,1,0,1,0,0,0,1,0,1,146496.0
3.0,7.0,10.0,6.0,4.0,1.0,6,3.0,2,1,0,0,1,0,0,0,0,0,0,1,29057.0
4.0,8.0,10.0,5.0,8.0,1.0,8,1.0,3,1,0,1,0,0,1,0,0,0,0,1,29621.0
13.0,15.0,13.0,5.0,2.0,0.0,10,0.0,4,0,1,0,1,0,1,0,0,0,0,1,200000.0
26.0,27.0,10.0,5.0,4.0,0.0,10,0.0,4,0,1,1,1,0,0,0,0,0,0,1,220000.0
9.0,15.0,9.0,6.0,5.0,2.0,4,7.0,5,1,1,0,0,1,0,0,0,0,0,1,23927.0
12.0,18.0,10.0,5.0,2.0,0.0,6,1.0,7,1,1,0,1,0,1,0,0,0,0,0,44544.0
7.0,13.0,7.0,6.0,2.0,1.0,6,0.0,4,0,0,1,1,1,0,0,0,0,0,1,75184.0
6.0,9.0,5.0,5.0,4.0,1.0,3,0.0,8,1,1,1,1,0,1,0,1,0,0,1,48333.0
11.0,19.0,11.0,3.0,4.0,1.0,6,6.0,3,0,1,1,0,0,0,0,0,0,0,1,95557.0
0.0,15.0,1.0,5.0,5.0,1.0,3,8.0,7,1,1,0,0,0,0,1,0,0,0,1,50481.0
8.0,14.0,10.0,6.0,4.0,2.0,6,2.0,3,0,1,1,0,0,0,0,0,0,0,1,89857.0
5.0,13.0,10.0,6.0,5.0,0.0,6,10.0,6,1,0,1,0,0,0,1,1,0,1,0,78183.0
4.0,5.0,4.0,5.0,8.0,0.0,0,7.0,4,1,0,1,0,0,0,0,0,0,0,1,22378.0
4.0,9.0,10.0,2.0,3.0,0.0,10,10.0,7,0,1,1,0,0,0,0,0,0,1,1,110000.0
21.0,21.0,21.0,3.0,4.0,2.0,6,10.0,6,1,1,0,1,0,0,0,1,0,0,1,19903.0
13.0,19.0,13.0,6.0,9.0,1.0,10,6.0,7,1,0,1,1,0,0,1,0,1,0,1,400000.0
24.0,30.0,25.0,6.0,9.0,1.0,6,0.0,6,0,1,1,1,1,0,0,0,0,0,1,104244.0
4.0,10.0,4.0,6.0,4.0,0.0,9,2.0,3,0,1,0,0,0,1,0,0,0,0,1,95541.0
15.0,20.0,5.0,5.0,5.0,1.0,8,1.0,6,0,1,1,1,0,0,0,1,0,0,1,50000.0
6.0,10.0,10.0,6.0,4.0,0.0,10,1.0,6,1,0,1,1,0,0,1,0,0,0,1,144000.0
31.0,31.0,10.0,5.0,1.0,0.0,10,0.0,13,1,1,1,1,1,1,1,0,0,0,0,150000.0
11.0,20.0,11.0,5.0,7.0,0.0,10,8.0,7,1,1,0,1,0,1,0,0,0,0,1,145000.0
4.0,10.0,8.0,6.0,4.0,0.0,10,10.0,3,1,0,0,0,0,0,1,0,0,0,1,140000.0
3.0,9.0,10.0,5.0,9.0,1.0,10,9.0,6,1,0,0,0,1,0,1,0,0,0,1,105000.0
5.0,8.0,10.0,5.0,4.0,1.0,6,7.0,10,1,1,1,1,0,1,0,0,1,1,1,53703.0
8.0,12.0,8.0,5.0,2.0,1.0,6,0.0,8,0,1,1,1,0,0,1,0,1,0,1,76307.0
18.0,25.0,20.0,6.0,9.0,0.0,10,10.0,3,1,0,0,0,0,0,0,0,0,0,1,140832.0
3.0,10.0,10.0,5.0,5.0,0.0,9,1.0,6,0,0,0,0,1,0,0,0,1,1,1,101910.0
9.0,12.0,10.0,5.0,2.0,0.0,6,0.0,4,0,1,0,1,0,0,0,0,0,0,1,102036.0
2.0,8.0,1.0,2.0,2.0,1.0,6,0.0,9,1,1,0,1,0,0,0,1,0,0,1,13963.0
10.0,15.0,12.0,6.0,9.0,1.0,9,1.0,4,1,1,0,1,0,0,0,1,0,0,1,318470.0
4.0,10.0,4.0,6.0,7.0,1.0,3,10.0,3,1,0,0,0,0,0,0,0,1,0,1,64444.0
8.0,11.0,10.0,6.0,5.0,1.0,9,1.0,7,0,1,0,1,0,0,0,0,1,0,1,159235.0
7.0,10.0,7.0,6.0,9.0,1.0,3,0.0,5,1,1,1,1,0,0,0,0,0,0,1,75554.0
5.0,5.0,8.0,6.0,5.0,0.0,5,10.0,3,1,0,0,1,0,1,0,0,0,0,1,109554.0
26.0,30.0,23.0,5.0,9.0,0.0,10,10.0,3,0,0,0,1,1,0,0,0,0,0,1,140000.0
2.0,7.0,7.0,5.0,2.0,1.0,6,0.0,18,1,1,1,1,1,1,0,1,0,1,0,111417.0
9.0,15.0,10.0,5.0,3.0,1.0,5,9.0,8,1,1,0,1,0,0,1,0,0,1,0,61222.0
24.0,33.0,10.0,5.0,1.0,0.0,7,0.0,5,0,1,0,1,0,0,0,1,0,0,0,64444.0
22.0,40.0,10.0,5.0,4.0,0.0,9,1.0,4,0,1,1,1,0,0,0,0,0,0,0,127388.0
6.0,15.0,10.0,6.0,1.0,0.0,3,0.0,8,1,1,1,1,1,0,0,0,0,0,0,128887.0
24.0,33.0,27.0,5.0,2.0,0.0,8,7.0,1,0,0,0,0,0,0,0,0,0,0,1,30074.0
7.0,10.0,7.0,5.0,4.0,0.0,6,1.0,3,0,0,0,1,0,0,0,0,0,0,1,70000.0
10.0,15.0,10.0,5.0,5.0,1.0,6,2.0,2,0,1,1,0,0,0,0,0,0,0,1,121444.0
20.0,26.0,24.0,5.0,4.0,0.0,10,1.0,5,0,1,0,1,0,0,0,0,0,0,1,90000.0
10.0,16.0,10.0,6.0,5.0,1.0,6,10.0,4,0,0,0,0,1,0,0,0,0,0,1,79189.0
29.0,29.0,29.0,7.0,4.0,0.0,7,5.0,3,1,0,0,1,0,0,0,0,0,0,1,64444.0
6.0,10.0,10.0,5.0,7.0,1.0,6,0.0,0,0,0,0,0,0,0,0,0,0,0,1,84851.0
30.0,36.0,30.0,5.0,9.0,2.0,6,10.0,6,1,1,0,1,1,0,0,0,0,0,1,118919.0
33.0,46.0,10.0,3.0,1.0,1.0,9,10.0,6,0,1,0,0,0,0,0,0,0,0,0,254776.0
14.0,16.0,16.0,6.0,9.0,2.0,10,6.0,4,1,0,0,0,0,0,1,0,0,0,1,230000.0
5.0,9.0,5.0,6.0,5.0,0.0,8,4.0,2,1,0,0,0,0,0,0,0,0,0,1,46801.0
12.0,12.0,12.0,3.0,9.0,0.0,9,3.0,6,1,1,0,1,0,0,0,0,0,0,1,108280.0
6.0,10.0,6.0,5.0,9.0,1.0,6,1.0,7,0,1,1,1,0,1,0,1,0,0,1,46135.0
1.0,1.0,10.0,6.0,9.0,0.0,9,10.0,3,1,0,0,1,0,0,0,0,0,0,1,44586.0
3.0,6.0,10.0,5.0,7.0,0.0,10,10.0,3,1,1,1,0,0,0,0,0,0,0,1,208000.0
2.0,4.0,2.0,5.0,5.0,0.0,8,8.0,5,0,0,0,0,0,1,1,0,0,0,1,28880.0
3.0,3.0,10.0,5.0,6.0,1.0,6,0.0,5,0,1,0,1,0,1,0,0,0,0,1,66066.0
5.0,12.0,5.0,2.0,6.0,0.0,6,10.0,10,1,1,1,1,1,1,0,1,0,1,1,104861.0
5.0,10.0,10.0,3.0,3.0,0.0,0,10.0,1,0,0,0,0,0,1,0,0,0,0,1,13427.0
11.0,12.0,11.0,7.0,5.0,0.0,8,0.0,4,1,1,1,0,0,0,0,0,0,0,1,60000.0
17.0,28.0,17.0,3.0,5.0,0.0,6,6.0,14,1,1,1,1,1,1,1,1,0,0,1,48333.0
8.0,11.0,9.0,5.0,4.0,1.0,6,6.0,11,1,1,1,1,1,0,0,1,1,0,1,124787.0
0.0,4.0,10.0,5.0,5.0,1.0,6,5.0,4,1,0,0,0,1,0,0,0,0,0,1,38666.0
5.0,5.0,5.0,5.0,4.0,2.0,10,0.0,6,0,1,1,1,0,0,0,0,1,0,1,75000.0
14.0,18.0,14.0,5.0,9.0,1.0,10,2.0,7,0,1,1,0,0,1,0,1,0,0,1,98000.0
4.0,10.0,10.0,5.0,9.0,1.0,10,1.0,8,1,0,0,1,1,0,1,0,1,0,1,100000.0
15.0,20.0,16.0,6.0,4.0,0.0,1,0.0,3,0,0,1,0,0,0,0,0,1,0,0,145386.0
8.0,8.0,8.0,6.0,4.0,1.0,6,3.0,3,1,0,0,1,1,0,0,0,0,0,1,80555.0
9.0,13.0,9.0,5.0,8.0,1.0,6,6.0,11,1,1,0,1,1,0,1,1,0,0,1,93023.0
10.0,10.0,10.0,6.0,5.0,0.0,10,6.0,8,1,1,1,1,1,1,0,1,0,0,1,155000.0
11.0,14.0,11.0,5.0,4.0,1.0,6,0.0,8,1,1,1,1,0,1,0,0,0,0,1,74213.0
18.0,30.0,18.0,6.0,3.0,0.0,6,0.0,1,0,0,0,0,0,0,0,0,0,0,1,104399.0
8.0,8.0,10.0,3.0,8.0,1.0,6,2.0,5,0,1,1,1,1,0,0,0,0,0,1,51374.0
24.0,25.0,25.0,6.0,9.0,1.0,9,1.0,2,1,0,0,0,1,0,0,0,0,0,0,191082.0
7.0,9.0,10.0,3.0,5.0,1.0,6,1.0,3,0,0,0,1,0,1,0,0,0,0,1,49333.0
24.0,34.0,24.0,6.0,5.0,0.0,3,0.0,6,0,1,1,1,0,0,0,1,0,0,1,77332.0
14.0,14.0,20.0,6.0,4.0,1.0,6,0.0,6,0,1,1,0,0,0,0,0,1,1,1,38140.0
0.0,7.0,10.0,5.0,5.0,0.0,10,10.0,3,0,0,0,0,0,0,0,0,0,0,1,36000.0
4.0,8.0,8.0,5.0,7.0,1.0,1,2.0,6,1,1,1,1,1,0,0,0,0,0,1,90866.0
21.0,34.0,21.0,7.0,5.0,1.0,3,10.0,8,1,1,0,1,1,1,0,0,0,0,1,59073.0
17.0,17.0,17.0,3.0,3.0,2.0,6,10.0,7,1,1,1,1,0,0,0,1,0,0,1,59073.0
20.0,25.0,20.0,6.0,2.0,2.0,10,0.0,6,0,1,0,1,0,0,0,1,0,0,1,66000.0
5.0,16.0,5.0,6.0,5.0,0.0,10,6.0,6,0,1,1,0,0,0,0,0,1,1,1,160000.0
7.0,12.0,7.0,6.0,6.0,2.0,2,0.0,5,0,1,1,0,1,0,0,0,1,0,1,64444.0
5.0,11.0,10.0,3.0,1.0,0.0,10,0.0,4,1,0,0,1,0,0,0,0,0,0,0,11000.0
5.0,6.0,5.0,5.0,5.0,0.0,0,1.0,6,1,1,1,0,1,0,0,0,1,0,1,72000.0
10.0,15.0,10.0,4.0,9.0,0.0,10,0.0,9,0,1,1,1,1,0,0,0,1,1,1,240000.0
8.0,11.0,8.0,3.0,5.0,0.0,1,0.0,3,1,0,1,0,0,0,0,0,0,0,1,68331.0
6.0,10.0,10.0,6.0,9.0,1.0,10,10.0,3,1,0,0,0,0,0,1,0,0,0,1,140000.0
14.0,15.0,15.0,6.0,7.0,0.0,10,10.0,7,1,0,0,1,1,0,0,0,1,1,1,500000.0
2.0,4.0,2.0,3.0,9.0,1.0,9,1.0,4,1,1,0,0,1,0,0,0,0,0,1,38216.0
23.0,36.0,24.0,6.0,3.0,1.0,5,0.0,6,1,1,0,1,1,1,0,0,0,0,1,91295.0
15.0,33.0,16.0,1.0,1.0,0.0,10,0.0,8,1,1,1,1,0,0,0,1,0,0,1,150000.0
5.0,8.0,5.0,6.0,7.0,1.0,6,10.0,3,1,0,0,0,1,0,0,0,0,0,0,33033.0
5.0,19.0,5.0,7.0,4.0,0.0,6,1.0,3,1,0,0,1,1,0,0,0,0,0,1,15193.0
12.0,18.0,12.0,3.0,4.0,0.0,0,1.0,2,0,0,0,0,0,0,0,0,0,0,1,132000.0
3.0,11.0,3.0,5.0,3.0,0.0,10,0.0,2,0,1,0,0,0,0,0,0,1,0,1,112000.0
18.0,20.0,19.0,5.0,1.0,1.0,10,2.0,5,0,1,1,1,0,1,0,0,0,0,1,360000.0
10.0,11.0,10.0,6.0,9.0,1.0,5,0.0,9,1,1,1,1,1,0,0,1,0,0,0,55851.0
5.0,7.0,7.0,5.0,4.0,1.0,6,1.0,8,1,1,1,1,1,0,0,1,0,0,1,128887.0
5.0,5.0,17.0,5.0,9.0,1.0,9,10.0,3,0,0,0,1,1,0,0,0,0,0,1,80254.0
5.0,7.0,5.0,6.0,7.0,1.0,9,1.0,8,1,1,1,1,0,0,0,0,0,1,1,57325.0
4.0,8.0,4.0,5.0,9.0,0.0,6,1.0,7,1,1,1,1,1,0,0,0,0,0,1,32222.0
18.0,22.0,18.0,5.0,7.0,0.0,7,7.0,1,0,0,0,0,0,0,0,0,0,0,1,48333.0
3.0,10.0,10.0,5.0,8.0,0.0,10,9.0,6,1,0,0,0,0,0,1,0,0,0,1,87000.0
23.0,40.0,10.0,5.0,5.0,1.0,6,1.0,7,1,0,0,0,0,1,0,0,0,0,1,116989.0
5.0,8.0,5.0,3.0,4.0,1.0,3,1.0,2,1,0,0,0,1,0,0,0,0,0,0,18259.0
6.0,10.0,6.0,5.0,9.0,0.0,7,1.0,4,0,0,0,1,1,0,0,0,0,0,1,96666.0
5.0,7.0,10.0,2.0,9.0,0.0,9,0.0,6,1,1,0,1,0,0,0,0,1,0,0,216559.0
49.0,51.0,10.0,5.0,1.0,1.0,1,0.0,5,0,1,0,1,0,0,0,1,0,0,0,43616.0
8.0,12.0,10.0,3.0,4.0,1.0,6,10.0,2,0,0,0,0,1,0,0,0,0,1,1,96096.0
5.0,8.0,10.0,5.0,4.0,1.0,3,0.0,5,1,1,0,1,0,0,0,0,0,0,1,98814.0
18.0,30.0,18.0,5.0,9.0,1.0,6,0.0,7,0,1,1,1,1,1,0,1,0,0,1,202382.0
12.0,15.0,10.0,5.0,1.0,0.0,9,10.0,3,1,1,0,0,0,0,0,0,0,0,0,152865.0
1.0,7.0,1.0,5.0,9.0,1.0,10,1.0,4,1,0,0,1,0,1,0,0,0,0,1,72000.0
1.0,8.0,10.0,5.0,3.0,2.0,6,0.0,8,1,1,1,1,1,1,0,0,0,0,1,15359.0
0.0,6.0,10.0,5.0,4.0,1.0,10,0.0,6,1,1,1,1,1,0,0,0,0,0,1,63330.0
3.0,10.0,10.0,6.0,2.0,0.0,6,10.0,5,1,0,0,0,0,0,0,0,1,1,0,24512.0
6.0,18.0,6.0,3.0,3.0,0.0,3,1.0,3,0,0,1,0,0,1,0,0,0,0,1,85925.0
13.0,15.0,13.0,5.0,4.0,1.0,6,0.0,4,1,1,0,0,0,0,0,0,0,0,1,111417.0
30.0,32.0,30.0,6.0,9.0,0.0,9,6.0,10,1,1,1,0,1,1,0,0,1,0,0,229298.0
4.0,14.0,10.0,5.0,3.0,1.0,9,2.0,3,0,0,0,0,0,0,0,0,0,0,1,47134.0
2.0,8.0,2.0,3.0,9.0,2.0,10,10.0,8,1,1,1,0,0,0,1,0,0,1,1,70000.0
25.0,30.0,25.0,6.0,4.0,1.0,6,10.0,2,0,0,0,0,1,0,0,0,0,0,1,94445.0
3.0,7.0,3.0,5.0,4.0,2.0,6,1.0,2,0,0,0,1,0,1,0,0,0,0,1,71962.0
6.0,10.0,6.0,6.0,8.0,2.0,9,0.0,7,1,0,0,1,0,1,1,0,0,0,1,78980.0
18.0,30.0,20.0,6.0,7.0,1.0,6,10.0,2,0,0,0,0,0,1,0,0,0,0,1,76091.0
9.0,18.0,6.0,6.0,8.0,1.0,6,10.0,4,1,0,0,1,0,0,0,0,0,0,1,34338.0
24.0,30.0,20.0,5.0,7.0,1.0,6,5.0,4,1,0,0,0,0,1,0,0,1,0,1,145715.0
28.0,40.0,10.0,5.0,7.0,1.0,9,0.0,7,1,1,0,1,0,1,1,1,0,0,1,45860.0
5.0,10.0,10.0,5.0,5.0,1.0,0,0.0,11,1,1,1,1,0,1,0,0,0,0,1,19245.0
16.0,49.0,10.0,3.0,1.0,1.0,6,7.0,3,0,0,0,0,0,0,0,1,0,0,0,80555.0
10.0,13.0,10.0,5.0,1.0,0.0,6,0.0,5,0,1,1,0,1,0,0,1,0,0,0,42962.0
6.0,12.0,5.0,6.0,4.0,1.0,6,0.0,9,1,1,1,1,0,1,0,0,1,0,1,54974.0
6.0,8.0,13.0,7.0,2.0,1.0,6,10.0,5,0,0,0,0,0,0,0,0,0,0,0,19603.0
13.0,17.0,13.0,6.0,6.0,1.0,6,1.0,6,1,1,1,1,0,0,0,0,0,0,1,237600.0
4.0,9.0,4.0,5.0,3.0,1.0,6,0.0,4,0,0,1,0,0,0,0,0,0,1,1,48074.0
2.0,8.0,2.0,6.0,9.0,1.0,2,0.0,8,1,1,0,1,1,0,0,1,0,0,1,40814.0
7.0,14.0,7.0,5.0,4.0,1.0,6,0.0,4,0,0,1,1,1,0,0,0,0,0,1,53163.0
40.0,45.0,10.0,6.0,6.0,1.0,6,1.0,8,1,1,0,1,1,0,1,1,0,0,0,29696.0
3.0,5.0,3.0,4.0,2.0,0.0,0,0.0,7,1,1,1,1,0,0,0,0,1,0,1,16784.0
16.0,20.0,10.0,5.0,5.0,0.0,10,10.0,2,1,0,0,0,0,0,0,0,0,0,1,220000.0
2.0,7.0,10.0,2.0,3.0,1.0,6,0.0,3,0,1,1,0,1,0,0,0,0,0,1,32222.0
1.0,4.0,3.0,5.0,5.0,2.0,10,3.0,5,1,0,0,1,0,1,0,0,0,0,1,85000.0
34.0,40.0,34.0,5.0,4.0,0.0,10,8.0,7,1,1,0,1,1,1,0,0,0,0,1,180000.0
2.0,8.0,2.0,3.0,4.0,1.0,6,0.0,9,1,1,0,1,0,1,0,0,0,0,1,25489.0
25.0,30.0,10.0,5.0,4.0,0.0,10,6.0,5,0,0,0,0,0,0,0,0,0,1,1,150000.0
4.0,6.0,4.0,5.0,3.0,1.0,6,1.0,2,1,0,0,0,0,0,0,0,1,0,1,70966.0
16.0,14.0,12.0,2.0,9.0,0.0,0,1.0,6,1,1,1,1,0,0,0,0,1,0,1,47843.0
27.0,41.0,10.0,5.0,4.0,1.0,6,6.0,2,1,0,0,0,0,0,0,0,0,0,1,163359.0
2.0,5.0,3.0,6.0,7.0,1.0,6,1.0,3,0,0,0,0,1,0,0,0,0,1,1,35981.0
20.0,23.0,20.0,5.0,3.0,1.0,4,8.0,4,0,0,0,0,1,1,0,0,0,0,0,47854.0
12.0,15.0,12.0,6.0,6.0,1.0,6,1.0,2,0,0,0,1,1,0,0,0,0,0,1,139271.0
13.0,15.0,10.0,5.0,3.0,1.0,6,1.0,11,1,1,1,1,0,1,1,0,0,0,1,41888.0
21.0,25.0,10.0,5.0,4.0,1.0,6,0.0,7,1,1,0,1,0,1,1,0,0,0,1,99099.0
17.0,22.0,10.0,6.0,9.0,1.0,9,4.0,1,0,0,0,0,0,0,0,0,0,0,1,191082.0
13.0,18.0,13.0,5.0,6.0,1.0,3,10.0,6,1,1,0,1,0,0,0,1,0,0,1,75184.0
10.0,17.0,10.0,5.0,1.0,1.0,6,0.0,13,1,1,1,1,1,1,1,1,1,1,1,53808.0
20.0,28.0,26.0,7.0,5.0,0.0,10,10.0,5,0,1,1,1,0,0,0,1,0,0,1,200000.0
3.0,20.0,10.0,5.0,9.0,0.0,10,8.0,7,1,0,0,1,0,0,0,1,0,0,1,106000.0
6.0,13.0,10.0,6.0,2.0,1.0,3,10.0,1,0,0,0,0,0,0,0,0,0,0,0,42962.0
1.0,5.0,10.0,5.0,8.0,2.0,6,10.0,7,1,1,0,0,0,1,1,0,1,0,1,72673.0
10.0,7.0,10.0,5.0,9.0,0.0,9,1.0,5,1,0,0,1,0,0,0,0,1,1,1,110827.0
5.0,5.0,10.0,6.0,1.0,0.0,10,4.0,6,1,1,0,1,0,0,0,0,0,0,0,135000.0
8.0,8.0,8.0,5.0,6.0,2.0,6,1.0,2,1,0,0,0,1,0,0,0,0,0,1,27595.0
28.0,39.0,29.0,5.0,2.0,0.0,6,4.0,2,1,0,0,1,0,0,0,0,0,0,1,25828.0
2.0,6.0,2.0,5.0,7.0,1.0,6,0.0,4,0,0,1,1,0,1,0,0,0,0,1,25698.0
8.0,12.0,7.0,5.0,3.0,2.0,6,0.0,6,1,1,1,1,0,0,1,0,0,0,1,111417.0
5.0,9.0,5.0,5.0,9.0,0.0,7,7.0,2,0,0,0,0,1,0,0,0,0,0,1,32759.0
25.0,40.0,10.0,3.0,6.0,1.0,9,10.0,2,0,0,0,1,0,0,0,0,0,0,1,29299.0
23.0,23.0,23.0,7.0,7.0,1.0,8,0.0,4,0,1,0,1,0,1,0,0,0,0,1,61710.0
19.0,23.0,19.0,6.0,6.0,0.0,6,1.0,1,0,0,0,0,1,0,0,0,0,0,1,55851.0
24.0,30.0,24.0,6.0,9.0,1.0,3,9.0,11,1,0,0,1,0,1,1,0,1,0,1,135332.0
10.0,25.0,10.0,6.0,5.0,0.0,6,1.0,1,0,0,0,0,0,0,0,0,0,0,1,74239.0
22.0,32.0,22.0,5.0,3.0,1.0,10,8.0,5,1,0,0,0,0,0,1,0,0,0,1,105000.0
8.0,13.0,10.0,3.0,4.0,1.0,9,10.0,0,0,0,0,0,0,0,0,0,0,0,1,114649.0
2.0,3.0,10.0,5.0,4.0,1.0,6,0.0,4,1,0,1,1,0,0,0,0,0,1,1,13623.0
22.0,31.0,10.0,7.0,9.0,2.0,10,3.0,8,1,1,1,1,0,0,1,1,0,0,1,180000.0
30.0,30.0,30.0,6.0,4.0,1.0,9,6.0,6,0,1,1,1,0,0,0,0,1,0,1,127388.0
3.0,12.0,3.0,6.0,6.0,1.0,2,1.0,5,1,1,0,0,0,0,1,0,0,0,1,47259.0
25.0,30.0,10.0,4.0,4.0,1.0,6,8.0,2,0,0,0,1,0,0,0,0,0,0,1,48333.0
18.0,26.0,10.0,6.0,4.0,1.0,10,0.0,3,0,1,0,0,1,0,0,0,0,0,1,115000.0
5.0,7.0,5.0,5.0,3.0,0.0,10,2.0,2,0,1,1,0,0,0,0,0,0,0,1,117000.0
6.0,10.0,10.0,7.0,5.0,0.0,6,1.0,1,0,0,1,0,0,0,0,0,0,0,1,64444.0
17.0,23.0,19.0,5.0,4.0,0.0,1,0.0,8,1,1,1,0,0,0,0,0,0,0,1,105405.0
23.0,27.0,25.0,5.0,4.0,2.0,10,0.0,8,1,1,0,1,0,0,0,1,0,0,1,120000.0
22.0,38.0,22.0,6.0,4.0,1.0,3,0.0,3,0,0,0,1,1,0,0,0,0,0,1,54777.0
7.0,26.0,7.0,7.0,7.0,1.0,10,3.0,3,1,0,0,1,0,0,0,0,0,0,1,240000.0
2.0,12.0,10.0,5.0,7.0,2.0,9,0.0,6,0,1,0,1,0,1,0,0,0,0,1,39721.0
14.0,20.0,14.0,2.0,4.0,1.0,5,1.0,5,0,1,1,1,0,0,0,1,0,0,1,75184.0
2.0,8.0,10.0,5.0,9.0,1.0,10,10.0,6,1,0,0,1,0,1,0,0,0,0,1,180000.0
30.0,40.0,35.0,5.0,4.0,0.0,10,0.0,1,0,0,1,0,0,0,0,0,0,0,1,184000.0
4.0,6.0,10.0,5.0,6.0,1.0,6,1.0,4,0,1,0,1,0,0,0,1,0,0,1,13800.0
27.0,28.0,29.0,7.0,1.0,0.0,10,0.0,4,0,1,0,1,0,1,0,0,0,0,1,50000.0
8.0,10.0,10.0,6.0,5.0,1.0,6,5.0,8,1,0,0,1,1,1,0,0,1,0,1,53703.0
4.0,8.0,5.0,5.0,3.0,0.0,10,1.0,3,1,1,1,0,0,0,0,0,0,0,1,150000.0
7.0,9.0,7.0,5.0,8.0,0.0,10,0.0,7,1,1,0,1,0,1,0,0,0,0,1,117000.0
12.0,17.0,10.0,2.0,4.0,0.0,6,0.0,6,0,1,1,1,0,0,0,0,0,0,1,214355.0
20.0,22.0,20.0,4.0,6.0,0.0,10,1.0,9,1,1,1,1,0,0,0,0,1,1,1,150000.0
12.0,16.0,12.0,5.0,5.0,1.0,6,1.0,2,0,1,1,0,0,0,0,0,0,0,1,20834.0
11.0,17.0,11.0,6.0,5.0,0.0,6,7.0,1,0,0,0,0,0,0,0,0,0,0,1,190000.0
19.0,22.0,10.0,3.0,1.0,0.0,6,0.0,4,0,1,0,0,0,0,0,1,0,0,0,53703.0
5.0,5.0,5.0,5.0,4.0,1.0,9,0.0,4,0,1,0,1,0,0,0,1,0,0,1,44586.0
13.0,18.0,13.0,5.0,7.0,0.0,10,10.0,4,0,0,1,0,0,1,0,0,0,0,1,225000.0
12.0,16.0,14.0,5.0,7.0,1.0,6,0.0,3,0,1,0,1,0,0,0,1,0,0,1,26852.0
17.0,20.0,21.0,3.0,9.0,1.0,6,0.0,11,0,1,0,1,1,0,0,1,1,0,1,37592.0
9.0,28.0,10.0,6.0,1.0,0.0,3,0.0,8,0,1,1,1,0,1,1,0,0,0,0,137136.0
3.0,7.0,3.0,5.0,5.0,0.0,8,8.0,3,0,0,0,1,0,1,0,0,0,0,1,23629.0
7.0,11.0,9.0,5.0,9.0,1.0,5,0.0,5,0,1,1,0,1,0,1,0,0,0,1,98814.0
12.0,20.0,10.0,2.0,5.0,0.0,10,6.0,4,1,0,0,1,0,1,0,0,0,0,1,150000.0
5.0,8.0,10.0,3.0,4.0,0.0,8,2.0,2,0,1,1,0,0,0,0,0,0,0,1,50000.0
6.0,11.0,6.0,5.0,9.0,1.0,10,7.0,6,1,0,0,1,1,1,0,0,0,0,1,155000.0
8.0,12.0,10.0,5.0,2.0,1.0,6,0.0,5,0,1,1,1,0,0,0,0,0,0,1,99099.0
4.0,8.0,3.0,5.0,7.0,0.0,6,0.0,5,1,1,0,0,0,0,0,1,0,0,1,10672.0
10.0,21.0,22.0,3.0,3.0,0.0,1,8.0,6,1,1,1,1,0,0,0,0,0,0,1,145386.0
30.0,30.0,10.0,6.0,8.0,2.0,6,0.0,3,0,1,0,1,0,1,0,0,0,0,1,112322.0
10.0,13.0,10.0,5.0,2.0,0.0,8,10.0,4,0,1,1,1,0,0,0,0,0,0,0,118000.0
8.0,14.0,8.0,5.0,3.0,1.0,6,9.0,2,0,0,0,1,0,1,0,0,0,0,1,67666.0
37.0,37.0,35.0,6.0,9.0,0.0,1,1.0,3,1,0,0,1,0,1,0,0,0,0,1,218079.0
27.0,34.0,30.0,3.0,3.0,0.0,1,0.0,5,0,1,0,1,0,0,0,0,0,0,1,73420.0
3.0,6.0,10.0,3.0,7.0,0.0,9,1.0,2,0,0,0,0,1,0,0,0,0,0,1,91082.0
3.0,6.0,3.0,5.0,2.0,2.0,10,10.0,4,1,1,1,0,0,0,0,0,0,0,1,120000.0
8.0,13.0,10.0,7.0,5.0,0.0,1,10.0,0,0,0,0,0,0,0,0,0,0,0,1,181732.0
9.0,12.0,9.0,2.0,5.0,1.0,6,10.0,8,1,1,1,1,0,0,1,0,0,1,1,72532.0
0.0,11.0,1.0,3.0,6.0,2.0,1,10.0,6,1,0,0,0,0,0,1,0,0,1,1,66529.0
18.0,19.0,18.0,5.0,4.0,1.0,6,5.0,2,0,0,0,0,0,1,0,0,0,0,1,84796.0
27.0,30.0,30.0,5.0,6.0,0.0,1,0.0,4,0,1,0,1,0,1,0,0,0,0,1,101770.0
3.0,3.0,13.0,6.0,4.0,0.0,0,1.0,2,0,1,0,0,0,0,0,0,0,0,1,19022.0
14.0,19.0,14.0,5.0,9.0,2.0,6,6.0,6,1,1,1,1,1,0,0,0,0,0,1,88699.0
0.0,3.0,1.0,5.0,2.0,0.0,8,0.0,10,0,1,1,1,1,1,0,1,1,0,1,12000.0
10.0,23.0,10.0,5.0,5.0,1.0,3,0.0,5,0,1,1,1,1,1,0,0,0,0,1,48333.0
17.0,17.0,17.0,6.0,5.0,0.0,1,10.0,2,1,0,0,1,0,0,0,0,0,0,1,123360.0
7.0,8.0,8.0,3.0,4.0,0.0,6,8.0,5,1,0,0,1,0,1,0,0,0,0,1,53703.0
3.0,6.0,10.0,5.0,3.0,0.0,9,0.0,8,1,1,1,1,0,1,0,0,0,0,1,38216.0
2.0,10.0,2.0,5.0,4.0,1.0,9,2.0,3,1,0,1,0,0,0,0,0,0,0,1,44586.0
10.0,15.0,15.0,6.0,9.0,1.0,6,10.0,2,0,0,0,0,0,1,0,0,0,0,1,78023.0
27.0,29.0,27.0,5.0,2.0,0.0,10,1.0,3,0,1,0,1,0,0,0,1,0,0,1,77000.0
7.0,12.0,7.0,5.0,9.0,0.0,10,10.0,3,1,0,0,1,0,0,0,0,0,0,1,205000.0
6.0,10.0,6.0,5.0,4.0,1.0,3,10.0,2,1,0,0,0,0,0,0,0,0,0,1,80555.0
2.0,4.0,2.0,7.0,3.0,0.0,1,10.0,5,1,0,0,0,0,1,1,0,0,0,1,26896.0
8.0,7.0,10.0,5.0,5.0,0.0,0,10.0,2,0,0,0,1,0,0,0,0,0,0,0,140000.0
25.0,29.0,25.0,5.0,4.0,0.0,10,6.0,5,1,1,0,1,0,0,0,0,0,0,1,185000.0
23.0,28.0,23.0,5.0,4.0,2.0,6,0.0,6,1,1,1,1,0,1,0,0,0,0,1,95292.0
6.0,9.0,7.0,3.0,7.0,1.0,6,7.0,1,0,0,0,0,0,0,0,0,0,0,1,69814.0
1.0,10.0,1.0,5.0,6.0,2.0,10,0.0,9,1,1,1,1,0,1,0,0,0,0,1,75000.0
18.0,26.0,18.0,5.0,4.0,0.0,1,1.0,1,1,0,0,0,0,0,0,0,0,0,0,130847.0
2.0,5.0,5.0,2.0,3.0,0.0,10,10.0,7,0,0,1,0,1,1,0,0,0,1,1,24000.0
5.0,10.0,5.0,6.0,9.0,0.0,8,1.0,1,0,0,0,0,1,0,0,0,0,0,1,36000.0
15.0,19.0,15.0,5.0,5.0,0.0,9,0.0,5,0,1,0,1,0,0,0,1,0,0,1,63066.0
10.0,14.0,10.0,5.0,7.0,1.0,6,6.0,3,1,0,0,0,0,1,0,0,0,1,1,215098.0
2.0,6.0,10.0,6.0,3.0,1.0,8,1.0,6,1,1,0,1,1,0,0,0,1,0,1,34557.0
3.0,13.0,10.0,3.0,6.0,1.0,6,10.0,8,1,1,1,1,0,1,0,0,0,0,1,46041.0
11.0,15.0,10.0,5.0,4.0,0.0,10,0.0,9,1,1,1,1,0,1,1,0,0,0,1,132000.0
10.0,15.0,10.0,5.0,4.0,0.0,6,0.0,4,1,1,0,0,0,0,0,1,0,0,1,36000.0
2.0,6.0,2.0,3.0,3.0,1.0,10,0.0,6,0,1,1,1,0,0,0,1,1,1,1,53000.0
5.0,8.0,5.0,3.0,8.0,1.0,0,7.0,3,0,0,0,0,1,0,0,0,0,0,1,18649.0
18.0,24.0,18.0,4.0,7.0,0.0,6,1.0,5,0,0,1,1,1,1,0,0,0,0,1,60000.0
10.0,17.0,10.0,3.0,5.0,0.0,10,1.0,2,0,0,1,1,0,0,0,0,0,0,1,250000.0
6.0,9.0,10.0,5.0,6.0,0.0,10,1.0,4,1,0,0,1,1,0,0,0,1,0,1,350000.0
25.0,35.0,25.0,7.0,7.0,0.0,9,1.0,2,1,0,0,0,0,0,0,0,0,0,1,76433.0
13.0,18.0,19.0,5.0,8.0,1.0,10,0.0,8,0,1,1,1,1,0,0,0,0,1,1,200000.0
8.0,20.0,8.0,7.0,7.0,0.0,10,10.0,4,1,0,0,0,0,0,0,0,0,1,1,190000.0
10.0,20.0,10.0,5.0,7.0,0.0,8,10.0,2,0,0,1,0,0,1,0,0,0,0,0,49368.0
3.0,9.0,3.0,5.0,6.0,0.0,9,4.0,3,1,0,0,0,1,0,0,0,0,1,1,89172.0
5.0,13.0,10.0,5.0,5.0,2.0,10,10.0,4,1,0,0,0,0,1,1,0,0,0,1,65000.0
9.0,17.0,9.0,6.0,7.0,1.0,6,9.0,6,1,0,0,0,0,1,1,0,0,0,1,57280.0
3.0,6.0,3.0,2.0,2.0,2.0,3,0.0,4,0,0,1,1,0,1,0,0,0,0,1,42748.0
2.0,2.0,2.0,5.0,2.0,2.0,6,7.0,1,0,0,0,0,0,0,0,0,0,0,1,16807.0
1.0,4.0,1.0,5.0,4.0,2.0,6,10.0,6,1,1,0,0,0,0,1,0,0,1,1,51555.0
3.0,8.0,3.0,3.0,4.0,0.0,6,2.0,4,0,1,1,1,0,0,0,0,0,0,0,10782.0
14.0,17.0,10.0,6.0,3.0,0.0,8,1.0,4,0,0,0,1,0,1,0,0,0,0,0,29621.0
12.0,15.0,13.0,5.0,9.0,0.0,9,1.0,1,0,0,0,0,0,0,0,0,0,0,1,161783.0
6.0,11.0,10.0,6.0,1.0,0.0,6,0.0,3,0,1,1,0,0,0,0,0,0,0,0,32222.0
12.0,14.0,13.0,6.0,9.0,1.0,0,1.0,6,0,0,0,1,0,1,0,0,1,0,1,65271.0
2.0,2.0,10.0,6.0,1.0,0.0,8,0.0,1,0,1,0,0,0,0,0,0,0,0,0,29621.0
4.0,13.0,10.0,6.0,4.0,2.0,6,10.0,2,1,0,0,1,0,0,0,0,0,0,0,34748.0
22.0,37.0,22.0,6.0,9.0,1.0,3,0.0,3,0,1,1,0,1,0,0,0,0,0,1,112777.0
7.0,10.0,20.0,6.0,4.0,1.0,6,9.0,5,1,0,0,0,0,1,1,0,0,0,1,85925.0
4.0,7.0,10.0,6.0,9.0,1.0,10,2.0,2,0,1,1,0,0,0,0,0,0,0,1,142000.0
10.0,10.0,10.0,5.0,4.0,0.0,9,1.0,1,0,0,0,0,0,0,0,0,1,0,1,101910.0
12.0,16.0,10.0,6.0,7.0,1.0,3,1.0,5,1,1,0,1,0,0,0,0,0,0,1,96666.0
7.0,10.0,7.0,5.0,7.0,0.0,0,1.0,4,1,0,0,1,0,0,0,0,0,1,1,29838.0
2.0,4.0,10.0,3.0,3.0,1.0,6,0.0,6,0,1,1,1,0,0,0,0,0,1,1,160000.0
16.0,21.0,16.0,6.0,4.0,0.0,6,0.0,3,1,1,0,0,1,0,0,0,0,0,1,79481.0
12.0,20.0,9.0,7.0,7.0,2.0,6,10.0,4,1,0,1,0,0,0,0,0,0,0,1,77435.0
8.0,25.0,10.0,3.0,5.0,0.0,10,0.0,7,0,1,1,1,0,1,0,0,0,0,1,90000.0
25.0,25.0,25.0,6.0,2.0,0.0,6,0.0,3,0,0,0,1,0,0,0,0,0,0,1,53703.0
19.0,25.0,25.0,5.0,7.0,1.0,3,10.0,6,0,0,0,0,1,0,0,0,0,0,1,91295.0
13.0,13.0,10.0,5.0,4.0,1.0,10,1.0,8,1,1,1,1,0,1,0,0,0,0,1,100000.0
6.0,11.0,6.0,4.0,8.0,0.0,10,0.0,11,0,1,1,1,0,0,0,0,1,1,1,188000.0
4.0,14.0,10.0,6.0,4.0,1.0,6,4.0,9,1,1,1,1,0,0,1,0,0,0,1,49407.0
4.0,14.0,4.0,5.0,4.0,0.0,6,2.0,4,1,1,1,0,0,0,0,0,0,0,0,18905.0
6.0,9.0,8.0,5.0,5.0,1.0,6,0.0,18,1,1,1,1,1,1,1,1,0,0,1,37592.0
15.0,23.0,15.0,5.0,4.0,0.0,0,7.0,1,0,0,0,0,0,0,0,0,0,0,1,120379.0
15.0,15.0,15.0,5.0,7.0,0.0,9,0.0,3,0,1,1,0,0,0,0,0,0,0,1,98089.0
34.0,40.0,10.0,5.0,1.0,0.0,10,1.0,8,1,1,1,0,1,0,1,0,0,0,0,200000.0
15.0,20.0,15.0,5.0,5.0,0.0,10,0.0,6,0,1,1,0,0,0,0,1,0,0,1,216000.0
10.0,13.0,10.0,3.0,4.0,0.0,7,1.0,6,0,1,0,1,0,0,0,1,1,0,1,59073.0
1.0,10.0,1.0,3.0,3.0,2.0,3,0.0,6,1,1,1,0,0,1,0,0,0,0,1,12889.0
18.0,20.0,2.0,6.0,2.0,0.0,9,10.0,3,1,1,0,0,0,0,1,0,0,0,1,140127.0
20.0,27.0,10.0,5.0,1.0,0.0,6,0.0,9,0,1,1,1,0,1,0,1,0,0,0,35000.0
9.0,13.0,10.0,3.0,4.0,0.0,6,7.0,0,0,0,0,0,0,0,0,0,0,0,1,24000.0
4.0,7.0,4.0,3.0,5.0,1.0,6,0.0,6,0,1,1,1,0,1,0,0,0,0,1,69959.0
6.0,20.0,28.0,3.0,8.0,0.0,10,6.0,5,1,1,0,0,0,0,0,0,0,1,1,181000.0
10.0,10.0,11.0,5.0,7.0,1.0,1,9.0,3,1,0,0,0,0,0,0,0,0,0,1,101770.0
7.0,10.0,5.0,2.0,4.0,1.0,6,0.0,7,1,1,1,1,1,0,0,0,0,0,1,119810.0
24.0,27.0,10.0,3.0,9.0,0.0,6,10.0,4,1,0,0,1,0,0,0,0,0,0,1,233975.0
11.0,15.0,10.0,5.0,3.0,0.0,6,0.0,3,0,1,0,0,0,0,0,0,0,0,1,32672.0
0.0,7.0,3.0,5.0,4.0,2.0,6,0.0,9,1,1,0,0,0,1,1,0,0,0,0,15598.0
2.0,5.0,10.0,7.0,7.0,0.0,7,1.0,4,0,1,0,1,1,0,0,0,0,0,1,24703.0
24.0,34.0,24.0,5.0,6.0,1.0,1,0.0,6,0,0,0,1,1,0,0,0,0,1,1,203540.0
15.0,20.0,20.0,3.0,7.0,0.0,1,0.0,4,0,1,1,0,0,1,0,0,0,0,1,109039.0
6.0,8.0,6.0,5.0,5.0,0.0,0,1.0,5,1,1,1,1,0,0,0,1,0,0,1,18182.0
35.0,42.0,35.0,5.0,6.0,0.0,5,0.0,6,1,1,0,0,1,0,1,0,0,0,0,61564.0
6.0,10.0,6.0,4.0,6.0,1.0,10,0.0,5,0,0,0,1,0,1,0,1,0,0,1,110000.0
8.0,14.0,10.0,7.0,9.0,0.0,10,10.0,4,1,1,1,0,0,0,1,0,0,0,1,150000.0
19.0,22.0,19.0,5.0,5.0,1.0,10,0.0,3,1,1,0,0,0,0,0,0,0,0,1,95000.0
4.0,6.0,4.0,4.0,5.0,2.0,6,1.0,4,1,1,0,0,0,0,0,0,0,0,1,11405.0
5.0,10.0,10.0,6.0,5.0,1.0,6,10.0,1,1,0,0,0,0,0,0,0,0,0,1,42962.0
11.0,15.0,11.0,5.0,5.0,0.0,9,7.0,1,0,0,0,0,0,0,0,0,0,0,1,112101.0
5.0,10.0,5.0,4.0,8.0,1.0,7,5.0,5,0,1,0,0,1,0,0,1,1,0,1,24703.0
0.0,11.0,10.0,6.0,4.0,2.0,10,10.0,4,1,1,0,0,0,0,0,0,0,0,1,35000.0
14.0,17.0,10.0,6.0,3.0,0.0,8,1.0,4,1,0,0,1,0,0,0,0,1,0,1,110000.0
10.0,14.0,10.0,5.0,4.0,2.0,10,10.0,7,1,1,0,1,0,0,0,1,0,0,1,65000.0
3.0,6.0,5.0,4.0,3.0,1.0,1,0.0,8,0,1,1,1,1,0,0,0,0,0,1,54520.0
5.0,7.0,7.0,6.0,7.0,1.0,8,1.0,1,0,0,0,0,1,0,0,0,0,0,1,41963.0
16.0,22.0,10.0,6.0,5.0,0.0,7,10.0,4,0,1,1,0,1,0,0,0,0,0,1,56925.0
30.0,32.0,10.0,6.0,9.0,1.0,1,8.0,1,1,0,0,0,0,0,0,0,0,0,0,167194.0
7.0,10.0,10.0,5.0,4.0,1.0,10,1.0,7,1,1,0,1,0,1,0,1,0,0,1,98000.0
24.0,29.0,10.0,5.0,4.0,0.0,10,4.0,3,0,0,0,0,0,0,0,0,0,0,1,175000.0
1.0,5.0,2.0,5.0,3.0,2.0,6,2.0,2,0,1,1,0,0,0,0,0,0,0,1,15246.0
4.0,13.0,4.0,6.0,5.0,2.0,6,10.0,3,1,0,0,0,0,1,0,0,0,0,1,30549.0
29.0,41.0,29.0,6.0,4.0,1.0,3,5.0,10,1,1,1,1,1,0,0,1,1,0,1,63155.0
9.0,11.0,10.0,3.0,5.0,0.0,8,0.0,4,0,1,0,1,0,0,0,1,0,0,1,42962.0
27.0,28.0,10.0,3.0,9.0,1.0,10,8.0,12,1,1,1,1,0,1,0,1,0,0,1,136000.0
5.0,8.0,5.0,6.0,4.0,0.0,8,7.0,5,0,0,0,0,1,0,0,0,0,0,1,41469.0
5.0,10.0,5.0,5.0,7.0,1.0,9,0.0,5,1,1,0,1,1,1,0,0,0,0,1,57325.0
3.0,10.0,10.0,5.0,1.0,0.0,6,0.0,8,0,1,1,1,0,0,0,0,1,0,0,51555.0
10.0,20.0,10.0,6.0,4.0,1.0,6,0.0,8,0,1,1,1,1,0,1,1,0,0,1,42962.0
8.0,15.0,10.0,3.0,7.0,0.0,6,1.0,4,1,1,0,0,0,0,0,1,1,0,1,91474.0
8.0,10.0,8.0,6.0,2.0,2.0,1,10.0,10,1,1,0,1,0,0,1,0,0,0,1,23989.0
17.0,23.0,10.0,5.0,2.0,0.0,6,10.0,2,0,0,0,0,0,0,0,0,0,1,1,136096.0
2.0,4.0,2.0,5.0,4.0,1.0,8,5.0,8,1,1,0,1,0,0,1,0,0,0,1,20000.0
3.0,8.0,3.0,6.0,7.0,2.0,6,10.0,8,1,1,1,0,0,1,0,0,0,1,1,36315.0
10.0,21.0,12.0,5.0,4.0,0.0,9,1.0,5,0,1,0,1,0,0,0,0,0,0,1,108280.0
15.0,15.0,15.0,5.0,3.0,1.0,0,3.0,5,1,1,0,1,0,1,0,1,0,0,0,20514.0
14.0,17.0,14.0,4.0,4.0,0.0,7,10.0,1,0,0,0,0,0,1,0,0,0,0,1,57999.0
2.0,5.0,10.0,5.0,9.0,2.0,10,0.0,5,1,1,1,0,1,0,0,0,0,1,1,252000.0
9.0,13.0,9.0,5.0,2.0,1.0,6,1.0,3,0,1,0,1,0,0,0,0,0,0,1,23629.0
5.0,12.0,6.0,3.0,7.0,1.0,6,10.0,18,1,1,1,1,1,1,1,1,0,0,1,75184.0
19.0,30.0,19.0,6.0,4.0,2.0,6,8.0,4,1,0,0,1,0,0,1,0,0,0,1,88912.0
8.0,18.0,8.0,5.0,4.0,0.0,10,1.0,8,1,1,0,1,1,1,0,1,0,0,1,130000.0
10.0,15.0,10.0,5.0,4.0,0.0,0,2.0,4,0,1,1,0,0,1,0,0,0,0,1,11189.0
7.0,10.0,7.0,5.0,5.0,1.0,2,10.0,2,0,0,0,0,0,1,0,0,0,0,1,48333.0
12.0,24.0,12.0,6.0,4.0,0.0,6,1.0,5,0,0,0,1,0,0,0,0,1,1,1,129961.0
20.0,24.0,20.0,6.0,5.0,0.0,3,0.0,3,0,0,1,1,0,1,0,0,0,0,1,82703.0
6.0,8.0,6.0,7.0,4.0,0.0,0,2.0,4,1,1,0,0,0,0,0,0,0,0,1,23497.0
11.0,16.0,10.0,5.0,7.0,1.0,6,8.0,5,0,0,0,1,0,1,0,0,0,0,1,42962.0
10.0,12.0,10.0,6.0,2.0,0.0,10,10.0,11,1,1,0,1,1,1,1,0,1,0,1,450000.0
24.0,35.0,40.0,4.0,5.0,0.0,10,0.0,7,0,1,1,1,0,1,0,1,0,0,1,129285.0
10.0,24.0,10.0,6.0,4.0,1.0,10,10.0,7,1,1,0,1,0,0,0,0,0,1,1,25000.0
3.0,10.0,10.0,7.0,1.0,1.0,10,10.0,3,1,0,0,0,0,0,1,0,0,0,0,140000.0
14.0,21.0,14.0,6.0,5.0,0.0,9,0.0,3,0,1,0,0,1,0,0,0,0,0,1,76433.0
7.0,14.0,7.0,6.0,3.0,2.0,3,0.0,3,0,0,1,1,0,1,0,0,0,0,1,69814.0
6.0,15.0,6.0,6.0,4.0,0.0,1,1.0,6,1,0,1,0,0,0,0,0,0,0,1,72693.0
10.0,22.0,10.0,5.0,7.0,1.0,10,1.0,6,1,1,1,1,0,1,0,0,0,0,1,125000.0
11.0,18.0,11.0,6.0,9.0,0.0,6,9.0,5,1,1,0,0,0,0,1,0,0,0,1,42564.0
6.0,12.0,6.0,5.0,5.0,0.0,10,1.0,5,0,1,0,1,0,1,0,0,0,0,1,159000.0
20.0,28.0,10.0,5.0,2.0,2.0,10,9.0,10,1,1,0,0,1,0,1,1,0,0,1,100000.0
5.0,6.0,5.0,6.0,2.0,1.0,6,9.0,1,1,0,0,0,0,0,0,0,0,0,1,53703.0
6.0,30.0,10.0,6.0,6.0,1.0,9,10.0,3,0,0,0,1,0,0,0,0,0,0,1,191082.0
15.0,20.0,10.0,5.0,9.0,2.0,10,2.0,5,0,1,1,1,0,0,0,0,0,0,1,160000.0
28.0,32.0,28.0,6.0,2.0,0.0,6,0.0,2,0,0,0,0,0,1,0,0,0,0,0,61222.0
4.0,13.0,4.0,6.0,5.0,0.0,3,0.0,2,0,0,1,0,1,0,0,0,0,0,1,26852.0
34.0,40.0,10.0,5.0,5.0,0.0,10,0.0,5,1,1,1,0,0,0,0,0,0,0,1,200000.0
1.0,6.0,10.0,6.0,3.0,2.0,2,10.0,7,1,1,0,0,0,0,1,0,0,1,1,44037.0
37.0,42.0,37.0,6.0,4.0,2.0,6,9.0,3,1,0,0,0,0,0,1,0,0,0,1,129602.0
2.0,3.0,3.0,3.0,4.0,0.0,10,0.0,7,0,1,1,1,0,0,0,0,1,0,1,96000.0
3.0,11.0,3.0,6.0,9.0,1.0,2,10.0,7,1,1,0,0,0,0,1,0,0,0,1,99888.0
4.0,14.0,4.0,5.0,5.0,0.0,10,0.0,6,0,1,0,1,0,0,0,0,1,0,1,110000.0
11.0,14.0,10.0,7.0,7.0,1.0,6,1.0,1,0,0,0,0,0,1,0,0,0,0,1,38666.0
8.0,15.0,10.0,7.0,3.0,1.0,6,10.0,3,1,0,0,1,0,0,0,0,0,0,1,429429.0
5.0,15.0,5.0,3.0,5.0,0.0,6,1.0,3,0,1,0,0,1,0,0,0,0,0,1,22555.0
37.0,40.0,10.0,6.0,8.0,2.0,6,3.0,2,1,0,0,0,0,0,0,0,0,0,1,363363.0
16.0,20.0,10.0,5.0,7.0,0.0,1,1.0,2,1,0,0,0,0,0,0,0,0,0,1,196271.0
7.0,9.0,9.0,3.0,5.0,0.0,6,2.0,8,0,1,1,1,0,0,0,0,1,0,0,69170.0
6.0,9.0,10.0,3.0,9.0,0.0,8,1.0,5,0,1,0,1,0,0,1,0,1,0,1,15600.0
8.0,11.0,10.0,5.0,4.0,1.0,6,6.0,4,0,0,0,0,1,1,1,0,0,0,1,47165.0
8.0,14.0,10.0,6.0,6.0,0.0,6,1.0,2,0,0,0,0,0,0,1,0,0,0,0,56917.0
22.0,28.0,10.0,5.0,1.0,0.0,10,10.0,7,0,1,0,1,0,1,0,1,0,0,0,40000.0
5.0,15.0,5.0,5.0,5.0,2.0,10,10.0,3,1,0,0,0,0,0,0,0,0,0,1,88000.0
6.0,8.0,6.0,5.0,4.0,1.0,6,2.0,10,1,1,1,1,0,1,0,0,0,0,1,35444.0
9.0,13.0,9.0,5.0,4.0,0.0,0,0.0,3,0,1,1,0,0,0,0,0,0,0,1,69000.0
17.0,18.0,18.0,5.0,6.0,1.0,6,10.0,8,1,1,1,1,0,0,0,0,0,0,1,145715.0
4.0,6.0,3.0,5.0,3.0,0.0,4,0.0,10,1,1,1,1,1,0,0,1,0,0,1,10767.0
3.0,5.0,3.0,6.0,4.0,2.0,4,10.0,2,1,0,0,0,0,0,0,0,0,0,1,29909.0
4.0,8.0,4.0,5.0,9.0,2.0,6,8.0,1,0,0,0,0,0,0,1,0,0,0,1,37096.0
1.0,6.0,1.0,5.0,2.0,0.0,6,0.0,10,1,1,1,1,1,1,1,0,1,0,1,24731.0
17.0,20.0,17.0,6.0,3.0,0.0,2,0.0,9,0,1,0,1,1,1,1,1,0,0,1,85925.0
8.0,14.0,10.0,6.0,9.0,1.0,3,0.0,5,1,1,1,1,0,0,0,0,0,0,1,150369.0
17.0,25.0,20.0,5.0,8.0,0.0,10,0.0,5,0,1,1,0,1,0,0,0,0,0,1,205000.0
8.0,12.0,10.0,5.0,3.0,0.0,10,10.0,12,1,1,1,0,1,1,1,0,0,1,1,160000.0
13.0,25.0,13.0,6.0,3.0,0.0,6,10.0,1,0,0,1,0,0,0,0,0,0,0,1,130000.0
6.0,15.0,10.0,6.0,9.0,1.0,0,10.0,2,0,1,1,0,0,0,0,0,0,0,1,22378.0
4.0,9.0,10.0,6.0,3.0,1.0,1,1.0,2,1,0,0,1,0,0,0,0,0,0,1,94501.0
12.0,12.0,10.0,5.0,5.0,2.0,6,0.0,3,1,1,0,0,0,0,0,0,0,0,1,30280.0
12.0,23.0,10.0,7.0,9.0,2.0,9,7.0,4,0,0,0,0,1,0,1,0,0,0,1,270062.0
32.0,37.0,35.0,6.0,4.0,1.0,6,0.0,6,0,0,0,1,1,0,0,0,0,1,1,133700.0
6.0,10.0,6.0,3.0,4.0,0.0,9,10.0,10,1,1,1,1,1,0,0,0,1,0,1,180000.0
24.0,30.0,24.0,3.0,6.0,0.0,9,0.0,7,1,1,1,1,1,0,0,0,1,1,0,171974.0
10.0,15.0,10.0,5.0,9.0,0.0,6,0.0,6,0,0,0,1,0,1,0,0,0,0,1,48333.0
8.0,10.0,10.0,6.0,9.0,2.0,6,5.0,3,0,0,1,0,0,0,0,0,1,0,1,153755.0
3.0,5.0,3.0,3.0,6.0,1.0,1,0.0,7,0,1,1,1,0,1,0,0,0,0,1,94501.0
34.0,45.0,10.0,5.0,1.0,0.0,6,0.0,11,0,1,0,1,0,1,1,0,0,0,0,28615.0
6.0,13.0,6.0,5.0,7.0,1.0,10,0.0,6,1,1,0,0,0,1,0,1,0,0,1,200000.0
19.0,25.0,10.0,5.0,4.0,1.0,6,0.0,4,1,0,1,0,0,1,1,0,0,0,1,76577.0
12.0,25.0,10.0,6.0,5.0,0.0,7,1.0,5,1,1,0,1,0,0,0,0,0,0,1,59073.0
9.0,18.0,9.0,6.0,2.0,0.0,6,0.0,6,0,1,1,1,1,1,0,0,0,0,0,70008.0
9.0,18.0,10.0,3.0,3.0,2.0,6,10.0,4,0,0,0,1,0,0,0,1,1,0,1,48333.0
25.0,30.0,10.0,5.0,4.0,1.0,1,10.0,30,1,1,1,1,1,1,1,1,1,1,1,130847.0
24.0,30.0,24.0,6.0,9.0,1.0,1,10.0,4,0,0,0,0,0,1,1,0,0,1,1,254425.0
0.0,12.0,1.0,2.0,4.0,1.0,6,0.0,7,1,1,1,0,0,1,0,0,0,0,0,23040.0
20.0,26.0,10.0,3.0,3.0,0.0,3,10.0,4,0,0,0,1,0,1,0,0,0,0,1,64444.0
3.0,4.0,3.0,5.0,4.0,1.0,8,0.0,5,0,1,1,1,0,1,0,0,0,0,1,17772.0
28.0,35.0,10.0,6.0,6.0,1.0,3,10.0,7,0,1,0,1,0,0,0,0,0,0,1,134258.0
11.0,19.0,11.0,5.0,3.0,2.0,10,10.0,6,1,1,1,0,0,0,1,0,0,0,1,130000.0
9.0,17.0,9.0,6.0,5.0,0.0,3,7.0,1,0,0,0,0,0,0,0,0,0,0,1,66592.0
10.0,10.0,10.0,2.0,5.0,0.0,8,1.0,5,0,1,0,1,0,0,0,1,1,0,1,75184.0
4.0,16.0,10.0,5.0,4.0,1.0,6,0.0,5,0,1,1,1,0,0,0,1,0,1,1,47144.0
4.0,8.0,4.0,5.0,5.0,2.0,5,2.0,4,0,1,1,0,0,0,0,1,0,0,1,48977.0
16.0,25.0,16.0,5.0,7.0,0.0,10,6.0,6,0,1,1,1,0,0,0,0,1,0,1,229000.0
38.0,42.0,10.0,5.0,1.0,0.0,6,0.0,4,0,1,0,1,0,0,0,1,0,0,0,20613.0
18.0,20.0,18.0,2.0,5.0,1.0,6,0.0,5,0,1,0,1,0,1,0,0,0,0,1,56822.0
28.0,34.0,35.0,5.0,8.0,0.0,6,0.0,5,0,1,1,1,0,1,0,0,0,0,1,91878.0
8.0,15.0,10.0,6.0,9.0,1.0,6,4.0,5,1,1,0,0,1,0,0,0,0,0,0,64444.0
35.0,40.0,10.0,5.0,5.0,2.0,9,9.0,2,0,0,0,0,0,1,1,0,0,0,1,104458.0
1.0,5.0,10.0,6.0,4.0,1.0,9,3.0,5,1,0,0,1,1,0,0,0,0,0,1,63694.0
15.0,19.0,10.0,5.0,1.0,0.0,6,9.0,4,1,1,1,0,0,0,0,0,0,0,0,53808.0
26.0,30.0,26.0,5.0,5.0,0.0,9,0.0,5,0,0,1,1,0,1,0,0,0,0,1,110191.0
2.0,4.0,3.0,6.0,4.0,0.0,3,4.0,2,1,1,0,0,0,0,0,0,0,0,1,69814.0
51.0,51.0,10.0,6.0,1.0,0.0,0,8.0,11,1,1,1,1,1,0,0,0,0,0,0,447569.0
3.0,10.0,3.0,5.0,9.0,1.0,10,0.0,8,1,1,0,1,1,1,0,0,0,0,1,134000.0
26.0,35.0,35.0,2.0,3.0,2.0,6,0.0,14,1,1,1,1,0,1,0,0,1,0,1,14369.0
0.0,8.0,1.0,2.0,3.0,1.0,5,10.0,1,0,0,1,0,0,0,0,0,0,0,0,10741.0
23.0,18.0,10.0,5.0,5.0,0.0,9,10.0,2,0,0,0,1,0,0,0,0,0,0,1,127388.0
10.0,12.0,10.0,5.0,4.0,0.0,5,0.0,4,0,0,1,0,0,1,0,0,1,0,1,109554.0
10.0,26.0,10.0,7.0,3.0,0.0,6,10.0,2,1,0,0,0,0,0,1,0,0,0,0,84930.0
5.0,11.0,5.0,6.0,7.0,1.0,6,1.0,4,0,1,0,1,1,0,0,0,0,0,1,107937.0
19.0,23.0,10.0,6.0,9.0,1.0,6,8.0,3,1,0,0,0,0,0,1,0,0,0,1,108587.0
25.0,29.0,10.0,5.0,7.0,0.0,10,0.0,3,0,1,0,0,0,1,0,0,0,0,1,150000.0
7.0,15.0,10.0,7.0,4.0,0.0,6,1.0,4,1,1,0,1,0,0,0,0,0,0,1,72000.0
2.0,5.0,2.0,5.0,4.0,1.0,6,0.0,5,0,1,1,1,0,0,0,0,0,0,1,21523.0
19.0,25.0,10.0,5.0,8.0,2.0,10,8.0,6,0,0,0,1,0,1,1,0,0,0,1,150000.0
8.0,11.0,8.0,5.0,7.0,0.0,7,7.0,1,0,0,0,0,0,0,0,0,0,0,1,60255.0
5.0,9.0,5.0,5.0,4.0,0.0,6,0.0,2,0,0,1,1,0,0,0,0,0,0,1,41244.0
14.0,26.0,10.0,7.0,7.0,2.0,6,10.0,4,1,0,0,0,0,0,1,0,0,1,1,82360.0
6.0,14.0,5.0,4.0,7.0,2.0,5,0.0,8,1,1,1,1,1,0,0,0,1,0,1,17262.0
3.0,7.0,10.0,5.0,4.0,0.0,10,10.0,2,1,0,0,0,0,0,0,0,1,0,0,15000.0
3.0,6.0,10.0,7.0,3.0,1.0,3,10.0,6,1,1,0,1,0,0,0,1,0,0,1,75184.0
3.0,5.0,0.0,5.0,3.0,2.0,6,0.0,4,0,1,0,1,0,0,0,1,0,0,1,64603.0
11.0,14.0,10.0,5.0,1.0,0.0,6,0.0,3,0,0,1,1,1,0,0,0,0,0,0,118147.0
15.0,20.0,10.0,3.0,4.0,1.0,7,10.0,6,0,1,0,1,0,1,0,1,0,0,1,26315.0
2.0,6.0,2.0,5.0,7.0,0.0,10,1.0,5,1,0,0,0,0,0,0,0,1,1,1,110000.0
4.0,8.0,4.0,5.0,4.0,1.0,6,1.0,1,1,0,0,0,0,0,0,0,0,0,1,22010.0
3.0,7.0,7.0,6.0,5.0,0.0,6,1.0,5,1,0,0,1,1,0,0,0,0,0,1,39740.0
18.0,25.0,10.0,3.0,3.0,0.0,6,2.0,3,0,1,0,1,0,0,0,0,0,0,1,211336.0
2.0,8.0,10.0,6.0,5.0,0.0,10,10.0,6,1,1,0,1,0,1,0,0,0,0,1,180000.0
9.0,13.0,9.0,5.0,5.0,1.0,10,6.0,6,0,1,0,1,0,1,0,0,0,0,1,115500.0
25.0,25.0,25.0,2.0,4.0,0.0,6,10.0,10,0,1,1,0,0,0,0,1,1,0,1,134258.0
4.0,7.0,4.0,3.0,9.0,1.0,6,5.0,7,1,1,1,1,1,0,0,0,1,0,1,28788.0
0.0,7.0,1.0,2.0,5.0,0.0,8,0.0,8,1,1,1,1,1,1,1,0,0,0,1,24684.0
6.0,9.0,6.0,6.0,4.0,2.0,4,0.0,5,0,1,0,1,0,0,0,1,0,0,1,17227.0
9.0,11.0,9.0,4.0,6.0,0.0,10,1.0,4,1,0,0,1,0,0,0,0,1,0,1,175000.0
3.0,7.0,3.0,2.0,5.0,1.0,3,9.0,12,1,1,0,1,0,0,1,0,1,1,0,18044.0
10.0,13.0,10.0,6.0,4.0,0.0,10,10.0,2,1,0,0,1,0,0,0,0,0,0,1,225000.0
13.0,15.0,13.0,5.0,5.0,0.0,10,10.0,6,1,0,0,1,1,0,0,0,1,0,1,163000.0
3.0,6.0,4.0,5.0,3.0,0.0,3,0.0,4,0,1,1,0,0,0,0,0,1,0,0,72000.0
16.0,17.0,21.0,3.0,9.0,0.0,10,10.0,8,1,1,0,1,0,0,0,1,0,0,1,93000.0
3.0,7.0,3.0,6.0,7.0,1.0,6,3.0,4,1,0,0,0,0,1,0,0,1,0,1,74193.0
0.0,4.0,0.0,3.0,5.0,1.0,6,0.0,6,1,1,1,0,0,0,0,0,0,0,1,42943.0
4.0,12.0,13.0,6.0,9.0,0.0,7,10.0,9,1,1,1,1,1,0,0,0,0,0,1,75571.0
2.0,5.0,10.0,3.0,2.0,1.0,6,0.0,5,1,1,1,0,0,0,0,0,0,0,1,46953.0
11.0,16.0,11.0,6.0,4.0,0.0,8,8.0,2,0,0,0,1,0,1,0,0,0,0,1,63600.0
3.0,5.0,3.0,5.0,5.0,0.0,10,4.0,3,1,0,0,1,0,0,0,0,0,0,1,120000.0
20.0,30.0,20.0,5.0,7.0,1.0,3,5.0,6,1,0,0,1,0,0,0,0,1,1,1,107406.0
5.0,8.0,10.0,5.0,9.0,1.0,10,0.0,15,1,1,1,1,1,1,1,0,0,0,1,135000.0
2.0,7.0,3.0,7.0,9.0,1.0,10,3.0,6,1,1,0,1,0,0,0,0,0,0,1,117000.0
10.0,15.0,10.0,5.0,4.0,0.0,5,0.0,6,1,1,1,0,0,1,0,0,1,0,1,128887.0
7.0,11.0,7.0,6.0,5.0,1.0,3,8.0,8,1,0,0,0,0,0,1,0,0,1,1,73036.0
6.0,9.0,6.0,3.0,4.0,0.0,6,2.0,2,0,1,0,0,0,0,0,0,0,0,1,75000.0
30.0,30.0,30.0,6.0,4.0,0.0,10,0.0,5,0,1,0,1,0,1,0,0,0,0,1,217100.0
8.0,15.0,10.0,5.0,7.0,1.0,6,1.0,9,1,1,1,1,1,0,0,0,0,0,1,108884.0
1.0,2.0,2.0,5.0,2.0,0.0,8,0.0,5,0,1,1,1,0,0,0,1,0,0,1,11848.0
2.0,4.0,2.0,6.0,4.0,1.0,2,4.0,6,1,0,0,1,0,0,0,0,0,0,1,39740.0
3.0,5.0,10.0,5.0,2.0,0.0,0,0.0,4,0,1,0,1,0,0,0,0,0,0,1,36000.0
8.0,10.0,10.0,3.0,7.0,0.0,8,0.0,3,0,1,1,0,0,0,0,0,0,0,1,37000.0
20.0,23.0,20.0,6.0,5.0,0.0,1,1.0,4,0,0,0,1,0,0,0,0,1,0,1,149020.0
4.0,8.0,4.0,3.0,3.0,1.0,6,1.0,6,0,1,1,1,0,1,0,0,0,0,1,61651.0
9.0,14.0,9.0,5.0,3.0,0.0,6,1.0,3,1,0,0,0,0,1,0,0,0,0,1,76872.0
10.0,25.0,10.0,3.0,4.0,1.0,5,8.0,2,1,0,0,0,0,0,1,0,0,0,1,69814.0
11.0,13.0,11.0,5.0,4.0,0.0,0,0.0,5,0,1,1,1,0,1,0,0,0,0,1,10630.0
19.0,34.0,19.0,5.0,7.0,1.0,6,0.0,4,1,1,1,0,0,0,0,0,0,0,1,107406.0
4.0,10.0,10.0,6.0,5.0,1.0,10,1.0,5,1,0,1,1,1,0,0,0,0,0,1,215000.0
6.0,11.0,12.0,6.0,4.0,0.0,6,0.0,4,0,1,1,1,1,0,0,0,0,0,1,38839.0
5.0,10.0,5.0,5.0,7.0,1.0,6,7.0,3,0,0,0,0,0,0,0,0,0,0,1,39000.0
12.0,25.0,20.0,5.0,4.0,1.0,10,9.0,4,0,1,1,0,0,0,1,0,0,0,1,70000.0
3.0,10.0,3.0,3.0,5.0,1.0,6,0.0,6,0,1,1,0,0,1,0,0,0,0,1,43183.0
20.0,27.0,25.0,7.0,9.0,0.0,6,8.0,2,0,0,0,1,0,1,0,0,0,0,1,134454.0
15.0,17.0,16.0,3.0,4.0,0.0,2,10.0,5,0,0,1,1,0,0,0,1,0,0,1,70888.0
1.0,6.0,1.0,6.0,7.0,1.0,6,1.0,6,0,0,0,1,1,0,0,0,1,0,1,72577.0
8.0,10.0,10.0,5.0,4.0,1.0,10,8.0,6,1,1,0,1,0,1,0,1,0,0,1,94400.0
4.0,7.0,4.0,6.0,4.0,1.0,6,0.0,9,0,1,1,1,1,0,0,0,1,0,1,35041.0
41.0,45.0,41.0,5.0,9.0,1.0,9,10.0,4,0,0,0,0,0,0,0,0,0,0,1,152865.0
10.0,15.0,10.0,6.0,4.0,2.0,6,10.0,7,1,1,0,1,0,0,0,1,0,0,1,40149.0
20.0,22.0,25.0,5.0,9.0,0.0,10,4.0,2,1,0,0,0,1,0,0,0,0,0,1,182000.0
7.0,10.0,10.0,5.0,4.0,1.0,10,10.0,8,1,1,1,1,0,0,1,0,0,0,1,97000.0
5.0,7.0,10.0,4.0,4.0,1.0,8,0.0,3,0,1,1,0,0,0,1,0,0,0,1,55000.0
4.0,10.0,10.0,5.0,3.0,2.0,1,0.0,3,0,1,0,0,0,0,0,1,0,0,1,39981.0
18.0,30.0,10.0,7.0,4.0,0.0,8,7.0,3,0,0,0,0,1,0,1,0,0,0,1,37026.0
17.0,22.0,17.0,3.0,5.0,2.0,7,0.0,7,0,1,0,1,0,0,0,1,0,0,1,85350.0
9.0,13.0,9.0,5.0,4.0,0.0,10,1.0,1,0,0,0,0,0,0,0,0,0,1,1,159000.0
7.0,14.0,7.0,3.0,1.0,0.0,9,8.0,9,0,1,0,1,0,1,1,0,0,0,1,50955.0
17.0,20.0,18.0,2.0,2.0,0.0,9,0.0,10,0,1,1,1,0,0,0,1,0,0,0,84000.0
6.0,7.0,10.0,6.0,7.0,0.0,6,10.0,3,1,0,1,1,0,0,0,0,0,0,1,28011.0
23.0,21.0,23.0,6.0,2.0,1.0,6,10.0,7,0,1,1,1,1,0,0,0,1,0,0,77332.0
8.0,14.0,8.0,5.0,4.0,2.0,3,0.0,13,0,1,1,1,1,1,1,1,1,0,1,64444.0
5.0,9.0,10.0,5.0,2.0,0.0,6,0.0,4,1,1,0,0,0,0,0,1,0,0,0,35918.0
11.0,15.0,15.0,5.0,9.0,0.0,10,0.0,4,0,1,1,0,0,1,0,0,0,0,1,130000.0
9.0,20.0,9.0,5.0,4.0,2.0,5,0.0,9,1,1,1,1,0,0,0,0,1,0,1,45111.0
5.0,8.0,5.0,5.0,4.0,0.0,6,1.0,3,0,0,0,0,0,0,0,0,0,1,1,91295.0
6.0,7.0,6.0,5.0,4.0,1.0,6,2.0,4,0,1,1,0,1,0,0,0,0,0,1,44397.0
7.0,10.0,3.0,5.0,3.0,1.0,1,9.0,17,1,1,1,1,1,1,1,1,0,1,1,50885.0
3.0,8.0,3.0,5.0,2.0,2.0,6,0.0,9,1,1,1,1,0,1,0,1,0,0,1,11091.0
8.0,9.0,10.0,5.0,4.0,0.0,0,0.0,5,0,1,1,1,1,0,1,0,0,0,0,223785.0
18.0,19.0,10.0,6.0,9.0,1.0,5,9.0,3,1,0,0,0,0,1,0,0,0,0,1,107406.0
17.0,27.0,10.0,6.0,1.0,0.0,2,1.0,1,1,0,0,0,0,0,0,0,0,0,0,53703.0
4.0,6.0,5.0,6.0,4.0,2.0,4,2.0,3,1,1,0,0,0,0,0,0,0,0,1,14356.0
11.0,13.0,11.0,6.0,4.0,0.0,4,0.0,3,0,1,1,0,0,0,0,0,0,0,1,38283.0
10.0,16.0,10.0,5.0,3.0,1.0,10,10.0,2,0,0,0,0,0,0,0,0,0,0,1,130000.0
19.0,30.0,19.0,5.0,7.0,0.0,6,0.0,6,0,1,0,1,0,0,0,0,0,0,1,99099.0
9.0,13.0,10.0,7.0,5.0,1.0,6,10.0,5,1,0,0,1,0,0,0,0,1,0,1,54369.0
10.0,15.0,19.0,5.0,4.0,1.0,7,10.0,7,1,1,0,1,1,0,0,0,0,0,1,48333.0
40.0,44.0,40.0,3.0,7.0,1.0,9,8.0,5,1,1,0,1,1,0,0,0,0,0,1,76433.0
30.0,30.0,10.0,5.0,5.0,0.0,1,4.0,5,1,0,0,1,1,0,0,0,0,0,0,312580.0
10.0,14.0,10.0,5.0,7.0,1.0,3,10.0,2,0,0,0,0,0,0,1,0,0,0,1,86999.0
3.0,8.0,3.0,4.0,5.0,1.0,10,5.0,17,1,1,1,1,1,1,1,0,1,1,0,80000.0
6.0,10.0,10.0,5.0,8.0,0.0,6,0.0,6,0,1,1,0,1,1,0,0,0,0,1,95796.0
2.0,10.0,2.0,5.0,6.0,2.0,6,8.0,4,1,0,0,0,0,0,1,0,0,0,1,37253.0
4.0,7.0,5.0,5.0,3.0,1.0,7,0.0,6,0,1,0,1,1,1,0,0,0,0,1,19333.0
4.0,8.0,4.0,3.0,2.0,2.0,10,0.0,6,0,1,0,1,1,1,0,0,0,0,1,67500.0
2.0,4.0,10.0,3.0,3.0,0.0,9,2.0,6,1,1,1,1,0,0,0,1,0,0,1,31847.0
3.0,6.0,2.0,3.0,7.0,1.0,6,0.0,9,1,1,0,1,1,0,0,1,0,0,1,23889.0
2.0,5.0,10.0,5.0,4.0,2.0,6,1.0,8,1,0,0,1,1,1,1,0,0,0,1,29328.0
8.0,12.0,8.0,5.0,5.0,1.0,9,7.0,1,0,0,0,0,0,0,0,0,0,0,1,78980.0
11.0,13.0,13.0,4.0,2.0,0.0,2,0.0,6,0,1,1,1,0,0,0,1,0,0,1,42962.0
0.0,5.0,10.0,6.0,4.0,1.0,7,0.0,7,0,1,1,1,1,0,0,0,0,0,1,16755.0
16.0,20.0,16.0,5.0,8.0,0.0,10,1.0,10,1,1,1,1,0,0,0,1,1,0,1,195000.0
20.0,28.0,20.0,5.0,3.0,0.0,9,0.0,8,0,1,1,1,0,1,0,0,0,0,1,140127.0
25.0,39.0,26.0,5.0,5.0,0.0,10,3.0,3,1,0,0,1,0,0,0,0,0,0,1,225000.0
35.0,40.0,35.0,7.0,2.0,1.0,3,8.0,13,0,1,1,1,0,1,0,1,0,0,0,96666.0
18.0,26.0,18.0,6.0,5.0,0.0,6,1.0,4,1,0,0,1,1,0,0,0,0,0,1,62503.0
20.0,30.0,20.0,6.0,5.0,0.0,7,0.0,2,0,1,0,0,0,1,0,0,0,0,1,53703.0
6.0,8.0,6.0,6.0,9.0,0.0,8,1.0,4,0,0,1,1,1,0,0,0,1,0,1,60000.0
0.0,4.0,1.0,5.0,5.0,2.0,10,0.0,12,1,1,1,1,1,0,1,0,0,1,1,63000.0
7.0,9.0,10.0,4.0,2.0,2.0,10,0.0,4,0,1,0,1,0,0,0,1,0,0,1,60000.0
34.0,48.0,10.0,4.0,6.0,2.0,10,8.0,7,0,1,0,1,1,1,0,0,0,0,1,62000.0
20.0,25.0,25.0,6.0,4.0,0.0,8,0.0,5,0,1,1,1,0,1,0,0,0,0,1,15876.0
25.0,30.0,10.0,2.0,1.0,1.0,3,1.0,6,1,1,0,1,0,0,0,1,1,0,0,107406.0
2.0,5.0,5.0,4.0,7.0,2.0,10,2.0,4,1,1,1,0,0,0,0,0,0,0,1,75000.0
15.0,20.0,20.0,7.0,5.0,0.0,10,4.0,3,1,0,0,1,0,0,0,0,0,0,1,180000.0
0.0,25.0,25.0,6.0,4.0,1.0,6,10.0,12,1,1,0,1,1,0,0,1,0,0,0,167125.0
8.0,13.0,10.0,5.0,4.0,0.0,3,0.0,5,1,1,0,0,1,0,0,0,0,0,1,81092.0
28.0,40.0,10.0,3.0,2.0,0.0,6,10.0,2,0,1,0,0,1,0,0,0,0,0,0,268515.0
12.0,16.0,12.0,5.0,9.0,1.0,4,0.0,8,1,1,1,1,0,1,0,0,0,0,1,29909.0
4.0,6.0,4.0,5.0,4.0,0.0,6,1.0,4,1,0,0,1,1,0,0,0,0,0,1,60000.0
7.0,16.0,10.0,5.0,4.0,1.0,6,0.0,5,0,1,1,0,0,1,0,0,0,0,1,35444.0
25.0,20.0,18.0,6.0,2.0,2.0,3,0.0,7,1,1,1,0,0,0,0,0,1,0,1,51555.0
6.0,7.0,7.0,5.0,3.0,1.0,6,3.0,6,1,1,1,0,0,0,0,0,0,0,1,36000.0
4.0,10.0,4.0,3.0,7.0,0.0,8,10.0,2,0,0,0,0,0,0,0,0,1,0,1,32400.0
25.0,30.0,25.0,3.0,9.0,1.0,6,1.0,6,0,1,0,1,0,1,0,0,0,0,0,62000.0
16.0,20.0,16.0,5.0,7.0,1.0,6,0.0,3,0,1,0,0,0,1,0,0,0,0,1,35551.0
3.0,9.0,3.0,2.0,4.0,2.0,6,9.0,1,0,0,0,0,0,0,1,0,0,0,1,30503.0
16.0,20.0,16.0,6.0,4.0,0.0,8,7.0,1,0,0,0,0,0,0,0,0,0,0,1,74000.0
10.0,20.0,23.0,3.0,9.0,0.0,10,10.0,3,1,0,0,1,0,0,0,0,0,0,1,180000.0
20.0,25.0,25.0,6.0,9.0,1.0,6,10.0,7,1,1,0,1,1,0,0,1,1,0,1,184971.0
8.0,8.0,10.0,2.0,3.0,0.0,10,0.0,4,0,1,0,0,0,0,0,1,0,0,1,170000.0
18.0,27.0,18.0,5.0,6.0,0.0,6,10.0,3,0,1,0,1,0,1,0,0,0,0,1,200000.0
25.0,30.0,25.0,2.0,9.0,1.0,6,0.0,6,0,1,1,1,1,1,0,0,0,0,1,53703.0
6.0,7.0,8.0,7.0,7.0,1.0,6,4.0,2,1,0,0,0,0,0,0,0,0,0,1,48114.0
8.0,10.0,10.0,5.0,4.0,1.0,3,0.0,6,1,1,1,1,0,0,0,1,1,0,1,64444.0
7.0,8.0,7.0,5.0,7.0,0.0,10,1.0,9,1,1,0,1,1,0,1,0,0,0,1,200000.0
31.0,42.0,31.0,5.0,4.0,0.0,9,0.0,5,0,1,0,1,1,0,0,0,0,0,1,118853.0
6.0,10.0,10.0,6.0,7.0,2.0,7,3.0,2,1,0,0,0,0,0,1,0,0,0,1,38666.0
15.0,20.0,10.0,5.0,5.0,0.0,9,0.0,3,0,1,0,0,0,0,0,1,0,0,1,63694.0
2.0,8.0,2.0,5.0,4.0,1.0,6,10.0,8,1,1,0,1,1,0,1,0,0,0,1,30208.0
14.0,20.0,29.0,5.0,5.0,1.0,1,8.0,6,1,1,1,1,0,1,0,0,0,0,1,61062.0
10.0,14.0,10.0,5.0,9.0,1.0,10,9.0,6,1,0,0,1,0,0,1,0,0,1,1,160000.0
25.0,30.0,10.0,5.0,5.0,0.0,1,0.0,1,0,0,0,0,0,0,0,1,0,0,1,48704.0
4.0,5.0,5.0,5.0,6.0,1.0,1,0.0,7,0,1,1,1,0,1,0,0,1,0,1,90866.0
4.0,7.0,4.0,5.0,3.0,1.0,7,8.0,5,1,0,0,0,0,0,1,0,0,0,1,29000.0
8.0,8.0,22.0,2.0,6.0,2.0,10,10.0,8,1,1,0,1,0,0,0,0,0,1,1,50000.0
11.0,11.0,10.0,3.0,1.0,0.0,9,0.0,3,0,1,1,0,0,1,0,0,0,0,0,82802.0
2.0,6.0,10.0,2.0,4.0,2.0,6,0.0,4,0,1,0,1,0,0,0,1,0,0,1,45649.0
0.0,3.0,1.0,2.0,2.0,1.0,6,0.0,6,0,1,1,1,0,0,0,0,1,0,0,40321.0
1.0,3.0,3.0,2.0,5.0,1.0,3,10.0,7,1,0,0,1,0,1,0,0,0,1,1,37592.0
6.0,7.0,10.0,6.0,2.0,0.0,7,0.0,4,0,0,0,1,1,0,0,0,0,0,1,42962.0
5.0,6.0,5.0,5.0,5.0,1.0,6,2.0,7,1,1,1,1,0,1,0,1,0,0,1,29444.0
10.0,14.0,10.0,5.0,5.0,1.0,6,7.0,4,0,1,0,0,0,0,0,1,0,0,1,25409.0
23.0,25.0,10.0,5.0,2.0,0.0,6,0.0,5,1,1,0,1,0,0,0,1,0,0,1,57999.0
5.0,9.0,10.0,2.0,2.0,0.0,6,2.0,3,0,1,1,0,0,0,0,0,0,0,1,39636.0
17.0,25.0,17.0,5.0,6.0,0.0,10,10.0,7,1,0,0,1,1,0,0,0,1,0,1,277000.0
5.0,5.0,9.0,5.0,5.0,0.0,9,4.0,4,1,0,0,1,0,0,0,0,0,0,1,84076.0
17.0,19.0,17.0,5.0,7.0,0.0,0,1.0,7,1,1,1,1,1,1,0,0,0,0,1,37297.0
20.0,25.0,20.0,6.0,4.0,0.0,7,10.0,4,0,1,0,1,0,1,0,0,0,0,0,180000.0
0.0,5.0,0.0,5.0,4.0,2.0,6,1.0,10,1,1,1,1,1,0,0,0,0,1,1,11852.0
2.0,9.0,2.0,3.0,3.0,2.0,6,7.0,12,1,1,0,1,1,1,1,1,0,1,1,12567.0
12.0,17.0,12.0,5.0,4.0,0.0,10,1.0,3,0,1,1,0,0,0,0,0,0,0,1,165000.0
6.0,20.0,6.0,6.0,5.0,0.0,6,10.0,6,0,1,1,0,0,0,0,0,0,1,1,63101.0
14.0,19.0,10.0,6.0,4.0,0.0,6,2.0,6,1,1,1,0,0,1,0,0,0,0,0,123732.0
27.0,37.0,27.0,6.0,6.0,0.0,10,10.0,8,1,1,1,0,1,0,0,0,1,0,1,227000.0
30.0,30.0,35.0,5.0,9.0,0.0,10,4.0,6,1,1,0,1,1,0,0,0,0,0,1,195000.0
4.0,6.0,5.0,5.0,4.0,0.0,8,0.0,1,0,0,0,0,0,1,0,0,0,0,1,37000.0
18.0,25.0,18.0,7.0,5.0,0.0,10,10.0,6,1,1,1,0,0,0,0,0,0,0,1,200000.0
12.0,16.0,12.0,6.0,7.0,1.0,10,9.0,5,1,0,0,0,0,0,1,0,0,0,1,151400.0
4.0,11.0,5.0,3.0,2.0,2.0,6,10.0,1,0,0,0,0,0,0,1,0,0,0,1,12889.0
8.0,11.0,8.0,3.0,5.0,0.0,10,0.0,9,1,1,1,1,0,0,0,0,1,0,1,56000.0
5.0,14.0,5.0,5.0,5.0,0.0,9,1.0,6,0,1,1,1,0,1,0,0,1,0,1,101910.0
13.0,15.0,13.0,5.0,7.0,2.0,4,6.0,6,0,0,0,1,1,0,0,0,0,0,1,47854.0
5.0,7.0,5.0,2.0,6.0,1.0,6,0.0,3,0,0,0,1,0,1,1,0,0,0,1,18350.0
4.0,8.0,4.0,5.0,2.0,1.0,2,1.0,5,0,1,0,1,0,0,0,1,1,0,1,25777.0
13.0,15.0,13.0,6.0,5.0,0.0,10,1.0,6,0,1,0,1,0,0,0,1,0,0,1,172550.0
7.0,16.0,7.0,6.0,4.0,1.0,3,0.0,5,0,1,1,0,0,1,0,0,0,0,1,78407.0
3.0,9.0,3.0,6.0,5.0,2.0,8,4.0,3,1,0,0,1,0,0,0,0,0,0,1,36779.0
5.0,9.0,5.0,6.0,6.0,1.0,6,0.0,9,0,1,1,1,1,1,0,0,0,1,1,83296.0
9.0,15.0,9.0,3.0,5.0,1.0,3,9.0,3,0,0,1,0,0,0,0,0,0,1,1,214812.0
6.0,9.0,10.0,4.0,2.0,2.0,6,10.0,1,0,0,0,0,0,1,0,0,0,0,0,43201.0
0.0,7.0,1.0,5.0,5.0,2.0,3,9.0,3,1,0,1,0,0,0,0,0,0,0,1,48333.0
2.0,5.0,2.0,6.0,7.0,1.0,6,10.0,4,1,0,0,0,1,0,0,0,0,1,1,85886.0
25.0,30.0,20.0,7.0,9.0,1.0,2,10.0,4,1,1,0,0,0,0,0,0,0,0,1,69814.0
3.0,6.0,10.0,6.0,4.0,1.0,8,1.0,7,1,1,1,0,1,0,0,0,1,0,1,36000.0
1.0,5.0,1.0,6.0,4.0,1.0,6,1.0,4,1,0,0,1,0,0,0,0,1,0,1,47692.0
11.0,17.0,10.0,5.0,6.0,1.0,6,0.0,4,0,1,1,1,1,0,0,0,0,0,1,41888.0
7.0,10.0,7.0,5.0,4.0,0.0,6,5.0,8,1,1,1,1,0,0,0,1,0,0,0,21564.0
8.0,10.0,13.0,5.0,5.0,0.0,10,2.0,6,0,1,1,1,0,0,0,0,0,0,1,170000.0
25.0,37.0,10.0,5.0,1.0,1.0,9,10.0,5,0,1,0,1,0,1,0,0,0,0,0,127388.0
10.0,15.0,10.0,5.0,9.0,1.0,10,8.0,5,0,1,1,1,0,1,0,0,0,0,1,120000.0
5.0,6.0,5.0,7.0,4.0,0.0,8,1.0,1,1,0,0,0,0,0,0,0,0,0,1,18883.0
22.0,23.0,10.0,5.0,8.0,0.0,10,1.0,3,0,1,0,1,1,0,0,0,0,0,1,220000.0
8.0,12.0,8.0,5.0,7.0,0.0,7,1.0,4,0,1,0,0,0,0,0,0,1,0,1,81629.0
27.0,27.0,10.0,3.0,1.0,0.0,6,4.0,8,1,0,0,1,0,0,0,0,0,0,0,189409.0
5.0,10.0,5.0,5.0,4.0,1.0,4,10.0,3,1,1,0,0,0,1,0,0,0,0,1,13160.0
24.0,27.0,24.0,3.0,5.0,1.0,1,10.0,11,1,1,0,1,0,0,0,0,1,1,1,90866.0
25.0,28.0,24.0,2.0,4.0,1.0,3,0.0,9,0,1,1,1,1,0,0,0,1,1,1,88073.0
9.0,11.0,9.0,7.0,9.0,2.0,10,10.0,4,0,1,0,0,0,0,0,0,0,0,1,80000.0
3.0,4.0,3.0,5.0,9.0,1.0,9,0.0,1,0,0,1,0,0,0,0,0,0,0,1,82802.0
29.0,41.0,29.0,6.0,7.0,0.0,10,0.0,8,1,1,1,0,1,0,1,0,1,0,1,350000.0
25.0,31.0,33.0,4.0,2.0,0.0,10,10.0,5,1,0,0,0,0,0,1,0,0,0,0,55000.0
6.0,7.0,10.0,5.0,5.0,1.0,3,8.0,1,0,0,0,0,0,1,0,0,0,0,1,85925.0
5.0,7.0,10.0,6.0,2.0,0.0,8,0.0,4,0,1,1,0,0,1,1,0,0,0,1,27231.0
13.0,18.0,10.0,5.0,1.0,0.0,6,0.0,7,0,1,0,1,0,0,0,0,0,0,0,105706.0
2.0,8.0,10.0,4.0,2.0,2.0,6,0.0,5,1,1,1,1,0,0,0,0,0,0,1,42351.0
1.0,2.0,10.0,5.0,3.0,2.0,4,0.0,6,0,1,1,0,0,0,1,0,0,0,1,16749.0
5.0,5.0,5.0,6.0,4.0,0.0,6,2.0,3,0,1,1,0,0,0,0,0,0,0,1,42962.0
5.0,6.0,19.0,5.0,5.0,2.0,10,0.0,11,1,1,1,1,0,1,0,0,0,0,1,108000.0
8.0,10.0,10.0,5.0,5.0,1.0,1,0.0,9,1,1,1,1,1,0,0,0,0,0,1,87231.0
6.0,5.0,6.0,5.0,6.0,1.0,6,0.0,4,0,0,0,0,0,1,1,0,0,0,1,24003.0
3.0,10.0,3.0,5.0,9.0,2.0,6,9.0,2,1,0,0,0,0,0,1,0,0,0,1,97915.0
10.0,10.0,10.0,3.0,4.0,0.0,10,3.0,2,1,0,0,0,0,0,0,0,0,0,1,110000.0
0.0,5.0,10.0,5.0,4.0,1.0,4,3.0,3,1,1,0,1,0,0,0,0,0,0,1,14356.0
1.0,2.0,4.0,6.0,5.0,2.0,9,0.0,4,0,1,1,1,1,0,0,0,0,0,1,38216.0
1.0,6.0,10.0,5.0,5.0,1.0,9,1.0,4,1,0,0,1,1,0,0,0,0,0,1,48407.0
15.0,23.0,15.0,6.0,7.0,1.0,6,1.0,5,1,0,1,0,1,0,0,0,0,0,1,107943.0
8.0,13.0,7.0,3.0,4.0,2.0,10,0.0,14,0,1,0,1,1,1,1,0,1,0,1,90000.0
2.0,4.0,10.0,2.0,1.0,0.0,6,7.0,4,1,1,0,0,0,0,0,0,0,0,0,99099.0
9.0,16.0,8.0,6.0,9.0,1.0,3,10.0,3,1,0,0,0,0,0,0,0,0,0,1,98814.0
23.0,23.0,10.0,3.0,2.0,0.0,1,0.0,5,0,1,0,1,0,0,0,1,0,0,1,72693.0
16.0,26.0,16.0,2.0,3.0,1.0,9,2.0,4,0,1,1,1,0,0,0,0,0,0,1,82802.0
2.0,6.0,10.0,5.0,4.0,1.0,3,0.0,3,0,0,1,0,1,0,0,0,0,0,1,85925.0
12.0,42.0,20.0,7.0,9.0,0.0,6,10.0,4,1,0,0,0,0,0,1,0,0,0,1,103015.0
20.0,30.0,20.0,5.0,5.0,0.0,10,0.0,5,0,1,1,1,0,1,0,0,0,0,1,125000.0
11.0,15.0,25.0,5.0,4.0,2.0,6,0.0,8,1,1,0,1,0,1,0,1,0,0,0,21189.0
3.0,7.0,10.0,5.0,4.0,1.0,6,1.0,10,1,1,1,1,1,0,1,0,0,1,1,21523.0
45.0,45.0,45.0,3.0,9.0,0.0,9,0.0,6,0,1,0,1,0,1,0,0,0,0,1,127388.0
4.0,7.0,7.0,3.0,5.0,2.0,3,0.0,5,0,1,1,0,0,0,0,1,0,1,1,53703.0
7.0,12.0,9.0,5.0,8.0,0.0,10,2.0,2,0,1,1,0,0,0,0,0,0,0,1,291182.0
11.0,16.0,11.0,5.0,9.0,0.0,10,2.0,4,0,1,1,0,0,0,0,0,0,0,1,149000.0
10.0,15.0,9.0,6.0,7.0,0.0,3,1.0,5,0,1,1,0,1,0,0,0,0,0,1,64444.0
8.0,11.0,8.0,6.0,5.0,1.0,2,2.0,2,0,1,0,0,0,0,0,0,0,0,1,71962.0
11.0,14.0,11.0,5.0,5.0,1.0,0,10.0,8,1,1,1,1,1,0,1,0,0,0,1,22378.0
5.0,6.0,7.0,6.0,9.0,1.0,7,3.0,6,1,1,0,1,0,0,0,1,0,0,1,65518.0
27.0,41.0,10.0,5.0,9.0,0.0,10,0.0,4,0,1,1,1,1,0,0,0,0,0,1,135000.0
25.0,35.0,25.0,6.0,6.0,0.0,2,8.0,2,1,0,0,0,0,0,1,0,0,0,1,91295.0
2.0,5.0,2.0,3.0,4.0,1.0,3,8.0,9,1,1,1,1,1,0,0,0,0,0,0,16111.0
12.0,14.0,12.0,6.0,4.0,1.0,10,0.0,5,0,1,1,0,0,1,0,0,0,0,1,101000.0
20.0,38.0,20.0,5.0,9.0,1.0,6,1.0,5,1,0,0,1,1,0,0,0,0,0,1,82576.0
16.0,24.0,10.0,5.0,5.0,1.0,8,1.0,5,0,0,1,1,0,1,0,0,0,0,1,48000.0
1.0,2.0,10.0,2.0,3.0,1.0,6,0.0,8,1,1,0,1,0,1,0,1,0,1,0,13963.0
3.0,6.0,10.0,2.0,4.0,2.0,9,8.0,4,0,1,0,1,0,1,0,0,0,0,1,45860.0
5.0,12.0,5.0,5.0,8.0,1.0,3,10.0,6,1,1,0,0,0,0,0,1,0,0,1,50266.0
2.0,6.0,10.0,4.0,4.0,1.0,1,0.0,4,0,1,1,0,0,0,0,0,0,0,1,33439.0
8.0,14.0,8.0,5.0,9.0,1.0,6,0.0,8,1,1,1,1,0,1,0,0,0,0,1,84232.0
10.0,15.0,19.0,5.0,5.0,1.0,1,10.0,3,0,0,0,0,0,0,1,0,0,0,1,127213.0
14.0,45.0,10.0,2.0,4.0,0.0,2,10.0,3,1,0,0,1,0,0,0,0,0,0,0,32222.0
6.0,26.0,6.0,6.0,5.0,1.0,3,1.0,9,1,1,1,0,0,0,1,0,0,1,1,85925.0
9.0,10.0,15.0,6.0,1.0,0.0,10,4.0,8,1,1,0,1,0,0,0,0,1,1,1,180000.0
11.0,17.0,10.0,3.0,2.0,0.0,3,7.0,6,0,1,0,1,0,0,1,1,0,0,1,46399.0
6.0,6.0,10.0,6.0,4.0,0.0,10,2.0,1,0,1,0,0,0,0,0,0,0,0,1,100000.0
10.0,17.0,10.0,6.0,1.0,0.0,3,0.0,6,1,0,1,1,0,0,0,1,0,0,0,21481.0
8.0,11.0,8.0,6.0,7.0,1.0,4,0.0,10,1,1,1,1,1,1,1,1,0,0,1,31105.0
11.0,21.0,11.0,7.0,5.0,1.0,3,1.0,4,0,0,0,1,1,0,0,0,1,0,1,85925.0
10.0,15.0,10.0,5.0,2.0,1.0,9,0.0,8,1,1,1,1,0,0,0,0,0,0,1,53503.0
13.0,15.0,13.0,5.0,7.0,1.0,5,10.0,2,1,0,0,0,0,0,0,0,0,0,1,107406.0
11.0,15.0,11.0,6.0,9.0,1.0,10,1.0,2,0,0,0,0,0,1,1,0,0,0,1,300000.0
5.0,9.0,10.0,5.0,5.0,2.0,3,10.0,5,0,1,0,1,1,1,0,0,0,0,0,16111.0
11.0,20.0,12.0,5.0,5.0,0.0,10,8.0,2,0,0,0,0,0,1,1,0,0,0,1,160000.0
6.0,12.0,6.0,5.0,4.0,2.0,10,1.0,5,1,0,0,1,0,0,1,0,1,0,1,220000.0
13.0,14.0,13.0,5.0,5.0,0.0,1,7.0,1,0,0,0,0,0,0,0,0,0,0,1,69058.0
15.0,25.0,15.0,6.0,7.0,0.0,3,9.0,5,1,0,1,0,1,0,0,0,0,0,1,93443.0
5.0,7.0,8.0,3.0,2.0,0.0,10,0.0,5,0,1,1,0,0,0,0,0,0,0,1,120000.0
4.0,15.0,4.0,5.0,5.0,1.0,10,8.0,13,1,1,1,1,1,1,1,1,0,0,1,100000.0
7.0,11.0,7.0,5.0,9.0,1.0,10,0.0,9,0,1,1,1,1,0,1,0,0,1,1,155000.0
3.0,3.0,10.0,5.0,7.0,0.0,8,2.0,6,0,1,1,1,0,0,0,0,0,0,1,29644.0
4.0,4.0,10.0,3.0,3.0,2.0,6,0.0,5,1,0,1,0,0,1,0,1,0,1,1,77992.0
6.0,11.0,6.0,5.0,5.0,0.0,10,0.0,7,1,1,1,0,0,0,0,0,1,0,1,120000.0
10.0,25.0,20.0,5.0,4.0,1.0,6,0.0,3,0,0,0,1,0,1,0,0,0,0,1,64762.0
8.0,8.0,10.0,6.0,1.0,0.0,9,0.0,4,0,1,0,0,0,0,0,1,0,1,0,50955.0
5.0,10.0,5.0,5.0,9.0,1.0,10,0.0,8,1,1,1,1,1,0,0,0,1,1,1,151000.0
23.0,26.0,10.0,5.0,5.0,0.0,7,1.0,5,0,1,0,1,1,0,0,0,0,0,1,69814.0
12.0,15.0,28.0,5.0,5.0,0.0,6,0.0,6,0,1,0,1,1,1,0,0,0,0,1,37096.0
35.0,35.0,10.0,4.0,2.0,2.0,6,1.0,4,0,0,0,0,0,0,0,0,0,0,1,57143.0
3.0,5.0,10.0,6.0,3.0,0.0,6,4.0,3,1,0,0,0,0,0,0,0,0,1,0,53703.0
20.0,24.0,22.0,5.0,4.0,1.0,2,5.0,5,1,0,0,1,0,0,0,0,1,0,1,96666.0
10.0,25.0,10.0,6.0,4.0,0.0,3,8.0,5,1,0,0,0,0,1,1,0,0,0,1,112777.0
25.0,29.0,10.0,3.0,4.0,1.0,6,1.0,1,0,0,0,0,0,0,0,0,1,0,1,124418.0
20.0,25.0,20.0,6.0,5.0,1.0,6,0.0,2,0,0,0,1,0,1,0,0,0,0,1,71538.0
4.0,8.0,5.0,5.0,6.0,0.0,4,0.0,7,0,1,1,0,1,0,1,0,0,1,1,23927.0
35.0,40.0,10.0,5.0,4.0,1.0,10,4.0,3,0,1,0,1,0,0,0,0,0,0,1,170000.0
8.0,10.0,8.0,5.0,7.0,0.0,10,10.0,8,1,1,0,1,1,1,0,0,0,0,1,220000.0
2.0,2.0,15.0,3.0,5.0,0.0,9,0.0,3,0,1,0,0,0,0,0,0,0,0,1,57325.0
3.0,7.0,6.0,6.0,5.0,1.0,8,1.0,8,1,1,1,1,1,0,0,0,0,0,1,44431.0
25.0,25.0,10.0,7.0,4.0,0.0,6,0.0,5,0,1,1,1,0,1,0,0,0,0,1,85886.0
11.0,15.0,11.0,5.0,5.0,0.0,6,0.0,5,0,1,1,1,0,0,0,1,0,0,0,48333.0
10.0,13.0,10.0,3.0,5.0,0.0,7,0.0,7,1,1,0,1,0,1,0,0,0,1,1,89362.0
21.0,30.0,10.0,3.0,4.0,1.0,3,0.0,8,0,1,1,1,0,0,0,1,0,0,1,42962.0
0.0,3.0,1.0,3.0,9.0,1.0,9,10.0,6,1,1,0,0,0,0,0,0,0,0,1,30573.0
16.0,20.0,10.0,2.0,6.0,1.0,10,1.0,7,1,1,0,1,1,0,0,1,0,0,1,207000.0
9.0,10.0,10.0,3.0,6.0,2.0,6,8.0,3,0,0,0,0,0,0,1,0,0,0,1,48333.0
43.0,48.0,10.0,3.0,9.0,0.0,9,4.0,2,1,0,0,1,0,0,0,0,0,0,0,280253.0
7.0,11.0,10.0,6.0,2.0,1.0,2,1.0,5,1,0,0,0,0,0,0,0,1,1,0,64444.0
22.0,25.0,10.0,5.0,2.0,0.0,6,0.0,17,1,1,1,1,1,0,0,1,1,0,1,97143.0
13.0,15.0,13.0,5.0,8.0,0.0,4,10.0,9,1,1,1,1,0,0,0,1,0,0,0,108906.0
6.0,10.0,10.0,5.0,2.0,1.0,6,10.0,12,1,1,1,1,0,1,1,0,1,1,1,52853.0
10.0,17.0,10.0,5.0,4.0,1.0,6,0.0,7,1,1,1,1,0,1,0,0,0,0,1,68677.0
0.0,4.0,10.0,2.0,5.0,2.0,2,10.0,13,1,1,0,1,1,0,1,1,0,1,0,10741.0
12.0,23.0,12.0,5.0,9.0,1.0,10,3.0,6,1,1,1,0,0,0,0,0,0,0,1,165000.0
21.0,24.0,35.0,5.0,6.0,0.0,10,1.0,6,0,1,1,1,0,1,0,0,0,0,1,224400.0
3.0,4.0,10.0,6.0,9.0,0.0,8,0.0,7,0,1,1,1,0,1,1,0,0,0,1,24000.0
4.0,5.0,4.0,7.0,5.0,0.0,6,1.0,3,0,1,1,1,0,0,0,0,0,0,1,49972.0
3.0,6.0,4.0,5.0,7.0,0.0,6,7.0,2,0,0,0,0,0,0,0,0,0,0,1,49493.0
6.0,10.0,10.0,4.0,8.0,0.0,0,1.0,3,0,1,0,0,1,0,0,0,1,0,1,24243.0
13.0,17.0,10.0,5.0,9.0,0.0,10,1.0,4,0,1,1,0,0,0,0,0,0,0,1,270000.0
15.0,20.0,15.0,6.0,7.0,0.0,10,0.0,5,1,1,0,1,0,0,0,0,1,0,1,320000.0
18.0,29.0,19.0,5.0,3.0,0.0,10,0.0,7,1,1,1,1,0,1,0,0,1,0,1,202020.0
15.0,21.0,15.0,5.0,2.0,0.0,6,0.0,3,0,1,0,0,0,1,0,0,0,0,1,52812.0
3.0,5.0,10.0,5.0,2.0,1.0,6,7.0,3,1,0,0,0,0,0,0,0,0,0,1,21760.0
3.0,5.0,3.0,3.0,3.0,1.0,3,1.0,7,0,1,1,1,0,0,0,0,1,0,1,39955.0
12.0,15.0,10.0,6.0,5.0,2.0,4,6.0,3,0,1,1,0,1,0,0,0,0,0,1,71781.0
15.0,15.0,15.0,5.0,9.0,0.0,6,1.0,1,0,0,0,0,0,1,0,0,0,0,1,20000.0
3.0,7.0,4.0,5.0,8.0,0.0,0,0.0,7,1,1,0,1,1,0,0,0,0,0,1,25250.0
1.0,5.0,1.0,5.0,7.0,2.0,10,0.0,2,0,1,0,0,0,1,0,0,0,0,1,55000.0
5.0,6.0,10.0,6.0,6.0,1.0,2,10.0,3,0,1,0,0,1,0,0,1,0,0,1,61222.0
12.0,14.0,14.0,5.0,2.0,0.0,6,0.0,4,0,0,0,0,0,1,0,0,0,1,1,32222.0
10.0,15.0,10.0,6.0,3.0,0.0,6,0.0,9,0,1,1,0,1,1,0,0,1,1,1,46080.0
2.0,4.0,8.0,5.0,9.0,0.0,6,10.0,6,1,1,0,0,0,1,0,1,0,0,1,64444.0
3.0,5.0,3.0,3.0,2.0,0.0,8,0.0,11,1,1,1,1,0,0,1,0,0,0,0,10000.0
7.0,7.0,7.0,5.0,9.0,1.0,4,0.0,5,1,1,0,1,0,1,0,0,0,0,1,39479.0
7.0,7.0,10.0,6.0,4.0,0.0,6,0.0,6,1,1,0,0,0,0,0,0,1,0,1,125656.0
12.0,17.0,10.0,5.0,7.0,0.0,6,1.0,2,0,0,0,0,0,0,0,0,1,0,1,36614.0
15.0,15.0,17.0,3.0,5.0,1.0,6,6.0,8,1,1,1,1,0,0,0,0,0,1,1,95796.0
36.0,40.0,40.0,6.0,4.0,2.0,6,0.0,4,0,1,0,0,1,0,0,1,0,0,1,32222.0
3.0,7.0,10.0,5.0,5.0,2.0,6,1.0,5,0,0,0,1,1,0,1,0,0,0,1,24000.0
5.0,8.0,10.0,5.0,4.0,0.0,6,0.0,7,0,1,1,1,0,0,1,1,0,0,1,14790.0
9.0,13.0,10.0,5.0,7.0,1.0,6,1.0,4,1,0,0,1,0,1,0,0,0,0,1,79894.0
8.0,8.0,15.0,3.0,6.0,0.0,9,10.0,3,1,0,0,1,0,0,0,0,0,0,1,63694.0
12.0,11.0,21.0,6.0,5.0,0.0,8,1.0,8,1,1,0,1,0,0,0,1,1,0,1,61710.0
10.0,24.0,10.0,6.0,9.0,1.0,3,9.0,5,1,0,0,0,0,0,0,0,0,0,1,94517.0
5.0,7.0,5.0,5.0,4.0,0.0,6,0.0,5,0,1,1,1,0,0,0,1,0,0,1,37348.0
1.0,8.0,2.0,3.0,4.0,1.0,6,0.0,8,1,1,1,1,1,0,0,0,0,1,1,48333.0
21.0,26.0,20.0,6.0,1.0,1.0,6,10.0,2,0,1,0,0,0,1,0,0,0,0,1,16111.0
3.0,9.0,10.0,5.0,2.0,2.0,6,0.0,7,0,1,0,1,0,1,0,0,0,0,1,39947.0
17.0,19.0,17.0,6.0,5.0,0.0,1,0.0,5,1,1,1,0,0,1,0,0,0,0,1,130847.0
5.0,15.0,7.0,6.0,3.0,0.0,6,1.0,6,0,0,0,0,1,1,1,0,1,0,1,56422.0
18.0,21.0,17.0,6.0,5.0,2.0,6,1.0,3,0,0,1,0,0,0,0,0,1,0,1,91295.0
15.0,24.0,10.0,7.0,6.0,1.0,3,10.0,2,0,0,1,0,1,0,0,0,0,0,1,85925.0
3.0,6.0,3.0,5.0,4.0,1.0,9,0.0,5,0,1,1,1,0,1,0,0,0,0,1,53503.0
10.0,25.0,15.0,5.0,4.0,0.0,6,10.0,6,1,1,0,1,0,0,0,0,0,1,0,71874.0
12.0,14.0,10.0,5.0,5.0,1.0,10,7.0,3,0,1,0,0,0,1,0,0,0,0,1,140000.0
9.0,13.0,10.0,5.0,3.0,1.0,6,10.0,6,1,0,1,0,0,0,0,0,1,0,1,121429.0
8.0,16.0,8.0,5.0,7.0,1.0,4,0.0,3,1,1,0,0,1,0,0,0,0,0,1,25123.0
6.0,10.0,10.0,6.0,4.0,0.0,0,1.0,3,1,0,0,0,0,0,0,0,1,0,1,18649.0
6.0,6.0,6.0,5.0,5.0,0.0,9,1.0,3,0,0,0,1,0,1,0,0,0,1,1,61146.0
13.0,16.0,13.0,5.0,2.0,0.0,6,0.0,4,0,0,1,1,1,0,0,0,0,0,1,59073.0
7.0,20.0,10.0,7.0,5.0,1.0,1,10.0,6,1,1,0,0,0,0,0,0,0,0,1,87231.0
15.0,15.0,25.0,5.0,1.0,0.0,6,10.0,4,0,1,0,1,0,0,0,1,0,0,1,122913.0
28.0,30.0,29.0,6.0,5.0,1.0,2,1.0,2,1,0,0,0,1,0,0,0,0,0,1,96666.0
6.0,13.0,5.0,5.0,5.0,0.0,10,10.0,4,1,0,0,1,0,1,0,0,0,0,1,155000.0
28.0,28.0,10.0,3.0,9.0,0.0,10,10.0,2,0,1,0,0,0,0,0,0,0,0,1,201000.0
20.0,24.0,20.0,5.0,2.0,0.0,9,0.0,6,1,1,1,1,0,1,0,0,0,0,1,82802.0
11.0,20.0,11.0,5.0,9.0,1.0,7,9.0,5,1,1,0,1,0,0,0,1,0,0,1,39740.0
6.0,12.0,5.0,6.0,5.0,2.0,2,10.0,2,1,0,0,0,0,0,0,0,0,0,1,63370.0
9.0,10.0,6.0,7.0,6.0,1.0,0,10.0,5,1,0,0,0,0,0,0,0,0,0,1,20141.0
16.0,30.0,16.0,6.0,4.0,1.0,9,6.0,4,0,1,0,1,0,1,0,0,0,0,1,127388.0
5.0,5.0,5.0,5.0,4.0,2.0,6,1.0,5,1,0,1,1,1,0,0,0,0,0,1,75184.0
5.0,11.0,10.0,6.0,4.0,2.0,2,0.0,4,0,1,0,0,1,0,0,1,0,0,1,32222.0
0.0,3.0,25.0,6.0,9.0,0.0,10,10.0,4,1,0,0,0,1,0,0,0,0,0,1,140000.0
4.0,10.0,10.0,6.0,6.0,1.0,6,3.0,4,1,0,0,1,0,0,0,0,0,1,1,38994.0
6.0,10.0,10.0,5.0,3.0,2.0,6,0.0,9,1,1,1,1,0,0,0,1,0,0,1,13997.0
11.0,18.0,11.0,3.0,5.0,0.0,6,2.0,3,0,1,1,0,0,0,0,0,0,0,1,93980.0
4.0,5.0,4.0,6.0,4.0,0.0,8,2.0,3,0,1,1,0,0,0,0,0,0,0,1,34000.0
7.0,10.0,10.0,5.0,9.0,1.0,9,4.0,3,0,0,0,1,0,1,0,0,0,0,1,57325.0
10.0,14.0,12.0,5.0,4.0,2.0,6,10.0,6,0,0,1,1,1,1,0,0,0,1,1,130000.0
15.0,25.0,15.0,6.0,5.0,1.0,6,8.0,7,0,0,0,0,0,0,1,0,0,0,1,59073.0
8.0,13.0,10.0,6.0,2.0,0.0,8,1.0,7,0,1,0,1,0,1,1,1,0,0,1,42962.0
13.0,18.0,13.0,6.0,5.0,0.0,4,7.0,3,0,1,0,0,0,0,0,0,0,0,1,26320.0
21.0,21.0,21.0,5.0,7.0,0.0,0,0.0,5,0,1,1,1,1,0,0,0,0,0,1,36701.0
15.0,20.0,10.0,6.0,5.0,1.0,6,1.0,3,1,0,0,0,0,0,0,0,0,0,1,75184.0
5.0,8.0,10.0,2.0,4.0,1.0,3,1.0,2,0,0,0,0,0,1,0,0,0,0,1,85925.0
7.0,12.0,7.0,3.0,5.0,0.0,6,0.0,5,0,1,1,0,0,0,0,1,0,1,1,45000.0
8.0,16.0,12.0,6.0,5.0,0.0,2,0.0,6,1,1,1,1,0,0,0,0,0,0,1,70888.0
7.0,9.0,10.0,3.0,2.0,0.0,6,0.0,5,0,1,1,1,0,0,0,1,0,0,1,10093.0
13.0,19.0,13.0,6.0,5.0,2.0,10,1.0,4,1,0,0,0,0,1,0,0,0,0,1,500000.0
7.0,9.0,7.0,6.0,6.0,0.0,8,1.0,5,1,1,0,1,0,0,0,0,0,0,1,80000.0
3.0,10.0,3.0,6.0,9.0,0.0,6,3.0,4,1,1,0,1,1,0,0,0,0,0,0,64444.0
13.0,17.0,17.0,5.0,9.0,2.0,10,0.0,5,0,1,0,1,0,0,0,1,0,0,1,120000.0
25.0,33.0,10.0,6.0,4.0,1.0,6,1.0,3,0,0,0,1,1,0,0,0,0,0,0,84000.0
25.0,25.0,10.0,5.0,7.0,1.0,6,8.0,4,0,1,0,1,0,1,0,0,0,0,1,122222.0
8.0,15.0,8.0,5.0,7.0,2.0,4,0.0,4,0,1,1,1,0,1,0,0,0,0,1,22731.0
2.0,6.0,10.0,6.0,2.0,1.0,6,1.0,7,1,0,0,1,0,0,1,0,1,1,0,69814.0
5.0,10.0,7.0,7.0,6.0,1.0,3,8.0,6,1,0,0,0,0,1,1,0,0,0,1,91295.0
5.0,8.0,5.0,4.0,6.0,0.0,10,10.0,9,1,1,1,1,1,1,1,0,0,0,1,230000.0
4.0,7.0,4.0,6.0,3.0,0.0,8,0.0,5,0,1,1,0,0,0,0,0,1,0,1,63904.0
24.0,37.0,24.0,6.0,9.0,1.0,6,1.0,2,0,0,0,0,0,0,0,0,0,0,1,63862.0
7.0,25.0,18.0,5.0,7.0,2.0,6,10.0,5,1,0,0,0,0,0,1,0,0,1,1,15256.0
17.0,23.0,10.0,6.0,4.0,1.0,3,0.0,2,0,0,0,0,1,0,0,0,0,0,0,92799.0
8.0,9.0,7.0,6.0,6.0,1.0,2,0.0,4,0,1,0,1,0,0,0,1,0,0,1,48333.0
1.0,4.0,10.0,5.0,2.0,2.0,10,10.0,5,1,1,0,0,0,0,1,0,0,0,1,75000.0
2.0,10.0,10.0,6.0,9.0,2.0,10,10.0,10,0,1,0,1,1,1,1,0,0,1,1,80000.0
8.0,13.0,9.0,3.0,5.0,0.0,6,1.0,3,0,0,0,0,0,0,0,1,0,0,1,73000.0
5.0,9.0,5.0,6.0,5.0,1.0,8,1.0,3,0,1,0,0,0,1,0,0,0,0,1,48000.0
12.0,15.0,12.0,6.0,5.0,0.0,3,0.0,4,0,1,1,0,0,1,0,0,0,0,0,69814.0
8.0,8.0,10.0,6.0,6.0,1.0,2,2.0,3,0,1,1,0,0,0,0,0,0,0,0,42962.0
10.0,13.0,10.0,5.0,2.0,0.0,10,0.0,8,1,1,1,0,1,1,0,0,0,0,0,200000.0
4.0,10.0,5.0,5.0,6.0,0.0,1,1.0,7,1,1,1,0,1,0,0,0,0,0,1,203540.0
8.0,12.0,9.0,3.0,8.0,2.0,9,8.0,5,0,1,0,0,0,1,0,0,0,0,1,53503.0
28.0,34.0,28.0,7.0,3.0,0.0,6,0.0,13,1,1,1,1,1,1,1,0,0,0,1,140000.0
10.0,13.0,13.0,6.0,3.0,2.0,2,0.0,4,0,1,0,1,0,0,0,1,0,0,1,53703.0
3.0,10.0,10.0,5.0,6.0,0.0,6,5.0,8,0,0,0,0,1,1,1,0,1,1,1,18548.0
4.0,10.0,4.0,6.0,7.0,0.0,0,1.0,6,1,1,1,0,0,0,0,0,0,1,1,80000.0
27.0,22.0,27.0,6.0,4.0,1.0,2,1.0,3,0,0,0,0,0,0,1,0,0,0,1,53703.0
15.0,19.0,15.0,7.0,4.0,1.0,2,10.0,5,0,1,0,1,0,0,0,1,0,0,1,69814.0
24.0,24.0,24.0,6.0,3.0,0.0,1,10.0,6,0,1,0,0,0,1,0,0,0,0,1,82870.0
17.0,18.0,17.0,5.0,5.0,0.0,10,1.0,4,0,1,1,1,0,1,0,0,0,0,1,98000.0
6.0,8.0,10.0,3.0,5.0,0.0,8,2.0,3,0,1,0,0,0,0,0,1,0,0,1,22709.0
13.0,19.0,13.0,5.0,8.0,0.0,10,10.0,7,1,1,1,0,1,0,0,0,1,1,1,240000.0
25.0,26.0,10.0,5.0,5.0,0.0,9,10.0,3,0,1,0,0,0,0,0,0,0,0,1,203821.0
17.0,20.0,10.0,3.0,8.0,1.0,3,10.0,8,1,1,0,0,1,0,0,0,1,0,1,107406.0
4.0,6.0,4.0,4.0,2.0,2.0,7,0.0,8,0,1,1,1,0,1,0,1,0,0,0,17185.0
2.0,6.0,2.0,5.0,4.0,1.0,6,1.0,5,0,1,1,1,0,0,0,0,0,0,1,16111.0
18.0,25.0,18.0,3.0,7.0,1.0,6,4.0,3,1,0,0,1,0,0,0,0,0,0,1,59073.0
8.0,10.0,10.0,6.0,9.0,1.0,10,0.0,6,1,1,0,0,0,0,0,1,0,0,1,114000.0
21.0,30.0,21.0,5.0,4.0,0.0,10,9.0,8,1,1,1,0,0,1,1,0,0,0,1,160000.0
5.0,9.0,5.0,5.0,4.0,0.0,6,2.0,7,1,1,1,0,0,0,1,0,0,0,0,57144.0
5.0,8.0,10.0,2.0,3.0,2.0,6,7.0,8,0,1,1,1,0,0,0,0,1,0,1,21564.0
47.0,51.0,10.0,6.0,2.0,0.0,1,10.0,8,1,1,0,1,0,1,0,0,1,0,0,45070.0
30.0,33.0,31.0,2.0,7.0,1.0,6,0.0,3,0,0,0,1,0,1,0,0,0,0,1,99099.0
19.0,21.0,10.0,5.0,7.0,1.0,10,1.0,4,0,0,0,0,1,1,0,0,0,0,1,175000.0
8.0,6.0,10.0,7.0,4.0,2.0,9,10.0,4,1,0,0,0,0,0,1,0,0,0,0,24204.0
12.0,14.0,12.0,5.0,4.0,0.0,10,2.0,4,0,1,1,0,0,0,0,0,0,0,1,135000.0
25.0,30.0,10.0,5.0,2.0,1.0,6,0.0,5,0,1,0,1,0,1,0,0,0,0,0,53808.0
5.0,10.0,25.0,6.0,4.0,0.0,6,0.0,5,0,1,1,0,0,1,0,0,0,0,1,132132.0
4.0,5.0,5.0,5.0,9.0,0.0,10,2.0,10,1,1,1,1,0,0,0,1,0,0,1,150000.0
1.0,2.0,1.0,5.0,1.0,2.0,6,0.0,5,1,1,0,1,1,0,0,0,0,0,1,15257.0
5.0,10.0,12.0,3.0,4.0,1.0,10,0.0,11,0,1,1,1,1,1,1,0,1,1,1,60000.0
8.0,14.0,8.0,3.0,7.0,1.0,3,0.0,7,1,1,1,1,0,1,0,0,0,0,1,70888.0
27.0,35.0,10.0,6.0,9.0,1.0,10,9.0,6,1,1,0,0,0,0,1,0,0,0,1,250000.0
10.0,16.0,7.0,7.0,7.0,0.0,3,10.0,5,0,0,0,0,0,0,1,0,0,1,0,118147.0
3.0,7.0,3.0,5.0,4.0,2.0,4,1.0,2,0,0,0,1,0,0,0,0,1,0,1,26320.0
6.0,12.0,8.0,6.0,5.0,1.0,2,10.0,4,1,0,0,0,0,1,1,0,0,0,0,15466.0
5.0,10.0,31.0,5.0,4.0,1.0,6,1.0,6,0,0,0,0,0,1,1,0,0,0,1,66769.0
12.0,20.0,15.0,5.0,5.0,1.0,6,10.0,5,1,1,0,1,0,0,0,1,1,0,1,15333.0
6.0,10.0,10.0,7.0,9.0,1.0,10,10.0,3,1,0,0,1,0,0,0,0,0,0,1,60000.0
2.0,14.0,2.0,5.0,7.0,1.0,6,10.0,3,0,0,0,0,0,0,1,0,0,0,1,53703.0
10.0,16.0,16.0,5.0,4.0,0.0,0,0.0,5,0,1,0,1,0,0,0,1,0,0,1,27973.0
32.0,40.0,32.0,6.0,5.0,0.0,10,0.0,12,1,1,0,1,1,1,1,1,0,0,1,149500.0
24.0,35.0,10.0,5.0,4.0,0.0,9,6.0,9,1,1,1,1,1,0,0,0,1,0,1,97770.0
0.0,3.0,1.0,4.0,3.0,2.0,6,8.0,3,0,0,0,1,0,1,0,0,0,0,1,38154.0
10.0,23.0,18.0,3.0,5.0,1.0,10,10.0,10,1,1,1,1,1,0,0,1,0,0,1,350000.0
7.0,7.0,7.0,6.0,3.0,2.0,5,10.0,7,1,1,1,1,0,0,0,0,0,0,0,59073.0
7.0,17.0,10.0,6.0,4.0,1.0,6,0.0,3,1,1,0,0,0,0,0,0,0,0,1,129524.0
4.0,8.0,10.0,5.0,6.0,0.0,1,1.0,1,0,0,0,0,0,0,0,0,1,0,1,103951.0
4.0,8.0,10.0,6.0,4.0,1.0,3,6.0,11,1,0,0,1,0,0,1,0,0,0,1,128887.0
7.0,10.0,10.0,5.0,3.0,1.0,6,6.0,3,1,1,1,0,0,0,0,0,0,0,1,48333.0
12.0,20.0,14.0,6.0,4.0,0.0,3,1.0,4,1,1,0,0,0,1,1,0,0,0,0,102036.0
39.0,43.0,39.0,5.0,2.0,0.0,10,8.0,4,0,0,0,0,0,0,1,0,0,0,1,110000.0
12.0,16.0,10.0,5.0,6.0,1.0,10,0.0,11,1,1,1,1,1,0,1,1,0,0,1,119000.0
10.0,14.0,10.0,5.0,3.0,0.0,10,0.0,4,0,1,1,0,0,0,0,0,0,0,1,172000.0
25.0,25.0,10.0,6.0,3.0,1.0,6,0.0,5,0,1,0,0,0,0,0,0,0,0,1,132132.0
14.0,14.0,14.0,6.0,5.0,0.0,4,1.0,1,0,0,0,0,0,0,0,0,0,0,1,47854.0
6.0,7.0,6.0,3.0,6.0,1.0,6,0.0,8,1,1,1,0,1,0,0,0,0,0,1,13616.0
5.0,11.0,8.0,6.0,4.0,1.0,2,5.0,5,1,0,1,0,0,0,0,0,0,0,1,59073.0
3.0,13.0,3.0,7.0,3.0,2.0,7,10.0,5,1,0,0,0,0,1,1,0,0,0,1,22555.0
3.0,3.0,10.0,6.0,9.0,0.0,10,8.0,9,0,1,1,1,1,1,0,1,0,0,1,75000.0
8.0,19.0,8.0,3.0,9.0,1.0,6,0.0,9,0,1,1,1,0,1,0,0,1,0,1,127813.0
13.0,15.0,15.0,3.0,3.0,1.0,6,0.0,6,1,1,1,1,0,0,0,1,0,0,0,32113.0
12.0,15.0,12.0,6.0,5.0,1.0,3,0.0,6,0,1,1,0,1,0,0,0,0,0,1,85925.0
7.0,10.0,10.0,3.0,8.0,0.0,10,1.0,8,1,1,1,1,1,0,1,0,1,0,1,140000.0
29.0,40.0,30.0,6.0,7.0,1.0,9,7.0,1,0,0,0,0,0,0,0,0,0,0,1,127388.0
2.0,3.0,10.0,3.0,4.0,1.0,6,0.0,3,1,0,0,1,0,1,0,0,0,0,1,74761.0
25.0,26.0,10.0,6.0,1.0,0.0,9,0.0,7,0,1,1,0,0,1,0,1,1,0,0,76433.0
15.0,17.0,15.0,6.0,4.0,1.0,6,8.0,3,0,0,0,0,1,0,1,0,0,0,1,39740.0
7.0,13.0,6.0,6.0,3.0,0.0,6,1.0,7,1,1,0,1,1,0,0,0,0,0,1,38666.0
5.0,15.0,10.0,7.0,5.0,1.0,10,3.0,7,1,1,0,0,1,0,1,1,0,0,0,40000.0
11.0,12.0,12.0,5.0,9.0,0.0,3,0.0,6,0,1,1,1,1,0,0,1,0,0,1,161109.0
6.0,12.0,6.0,5.0,5.0,0.0,6,1.0,2,0,0,0,1,0,1,0,0,0,0,1,49889.0
6.0,8.0,6.0,6.0,4.0,1.0,3,10.0,10,1,1,1,1,1,1,1,0,1,0,1,107406.0
11.0,14.0,10.0,6.0,2.0,2.0,10,1.0,1,1,0,0,0,0,0,0,0,0,0,1,90000.0
15.0,20.0,15.0,5.0,5.0,0.0,1,9.0,5,1,0,0,0,0,0,1,0,0,0,1,123578.0
3.0,9.0,10.0,6.0,5.0,2.0,6,10.0,3,1,0,0,0,0,0,0,0,0,0,1,44567.0
14.0,22.0,14.0,5.0,3.0,2.0,6,6.0,6,0,1,1,1,0,1,0,0,0,0,1,38642.0
6.0,8.0,6.0,5.0,5.0,2.0,4,1.0,4,0,1,0,0,0,0,0,1,0,0,1,20338.0
12.0,18.0,10.0,6.0,5.0,1.0,6,0.0,4,1,1,1,0,0,0,0,0,0,0,1,118147.0
6.0,6.0,10.0,5.0,8.0,0.0,10,1.0,8,1,1,1,1,1,0,0,0,0,1,1,105000.0
23.0,25.0,25.0,6.0,5.0,1.0,6,0.0,5,0,1,1,1,0,1,0,0,1,0,1,70675.0
3.0,5.0,10.0,6.0,4.0,1.0,8,10.0,1,1,0,0,0,0,0,0,0,0,0,1,27000.0
2.0,11.0,3.0,5.0,9.0,1.0,10,0.0,6,1,1,1,1,0,1,0,0,0,0,1,117000.0
4.0,12.0,10.0,6.0,1.0,1.0,6,1.0,6,0,1,1,1,0,1,0,0,0,0,0,139628.0
12.0,13.0,12.0,3.0,5.0,0.0,10,10.0,4,0,1,1,0,0,0,0,0,0,0,1,225000.0
20.0,37.0,10.0,3.0,1.0,0.0,5,1.0,4,0,0,0,1,0,0,0,1,1,0,0,161109.0
4.0,5.0,7.0,6.0,5.0,0.0,0,2.0,7,1,1,1,1,0,0,0,0,0,0,1,27973.0
10.0,18.0,15.0,6.0,6.0,2.0,0,10.0,7,1,1,0,0,1,1,1,0,0,0,1,27973.0
28.0,32.0,10.0,6.0,1.0,0.0,4,10.0,5,1,0,0,0,0,0,1,0,0,0,0,11963.0
20.0,28.0,28.0,5.0,8.0,1.0,6,0.0,10,1,1,1,1,0,1,0,1,1,0,1,144842.0
22.0,40.0,22.0,3.0,5.0,1.0,3,1.0,2,0,0,0,1,1,0,0,0,0,0,1,98814.0
12.0,17.0,12.0,6.0,2.0,1.0,2,0.0,1,0,0,1,0,0,0,0,0,0,0,0,75184.0
24.0,29.0,10.0,5.0,5.0,1.0,10,0.0,2,0,1,0,0,1,0,0,0,0,0,1,225000.0
13.0,18.0,13.0,5.0,5.0,0.0,10,8.0,2,0,0,0,0,1,0,0,0,0,0,1,150000.0
12.0,30.0,10.0,6.0,1.0,0.0,10,10.0,4,0,1,0,0,0,0,0,1,0,0,0,130000.0
5.0,8.0,10.0,6.0,5.0,1.0,10,3.0,9,1,1,0,1,0,0,0,0,0,1,1,165000.0
7.0,12.0,10.0,3.0,2.0,1.0,6,8.0,3,1,0,0,0,0,1,1,0,0,0,1,97143.0
6.0,14.0,7.0,5.0,5.0,1.0,10,0.0,8,1,1,0,1,1,0,0,0,0,0,1,100000.0
2.0,12.0,3.0,5.0,4.0,2.0,10,0.0,6,0,1,1,1,0,1,0,0,0,0,1,60000.0
2.0,9.0,10.0,3.0,5.0,2.0,10,10.0,9,1,1,0,0,0,0,1,0,0,0,0,16000.0
9.0,15.0,9.0,6.0,5.0,0.0,8,1.0,9,1,1,1,1,0,1,1,0,0,0,1,61710.0
17.0,20.0,20.0,5.0,9.0,0.0,9,10.0,8,1,0,1,1,0,1,0,0,0,1,1,161783.0
9.0,9.0,10.0,3.0,4.0,1.0,10,1.0,3,0,0,0,1,0,0,0,0,0,0,1,205000.0
11.0,12.0,11.0,5.0,5.0,1.0,6,0.0,7,0,1,1,1,0,1,0,1,0,0,1,36697.0
2.0,4.0,10.0,6.0,4.0,1.0,6,0.0,1,0,0,0,0,0,1,0,0,0,0,1,13623.0
10.0,11.0,10.0,5.0,4.0,2.0,6,7.0,11,1,1,1,1,1,0,0,0,1,0,1,60964.0
8.0,10.0,8.0,5.0,6.0,1.0,3,1.0,3,0,0,0,1,1,0,0,0,0,0,1,80555.0
4.0,8.0,8.0,5.0,8.0,2.0,6,1.0,2,0,0,0,0,1,0,0,0,0,0,1,41392.0
2.0,6.0,10.0,5.0,1.0,0.0,10,7.0,6,1,0,0,1,0,0,1,0,0,0,1,58000.0
20.0,26.0,10.0,5.0,4.0,0.0,10,10.0,6,1,1,1,1,0,0,0,0,1,0,1,185000.0
4.0,13.0,4.0,5.0,2.0,1.0,6,9.0,8,1,1,1,0,1,1,1,0,0,0,1,11038.0
3.0,5.0,4.0,6.0,5.0,1.0,4,4.0,1,0,0,0,1,0,0,0,0,0,0,1,12777.0
8.0,15.0,10.0,5.0,9.0,1.0,5,9.0,2,1,0,0,0,0,0,1,0,0,0,1,91295.0
6.0,12.0,20.0,5.0,8.0,1.0,10,0.0,7,1,1,0,1,1,1,0,0,0,0,1,130000.0
2.0,6.0,10.0,2.0,5.0,0.0,6,8.0,8,1,1,0,0,0,0,1,0,1,1,0,14594.0
23.0,35.0,10.0,5.0,3.0,0.0,10,0.0,4,0,1,0,0,0,0,0,1,0,0,1,150000.0
42.0,46.0,10.0,6.0,1.0,1.0,6,0.0,5,0,1,0,1,0,0,0,1,0,0,0,46185.0
8.0,8.0,12.0,5.0,9.0,1.0,10,10.0,5,1,1,0,0,0,0,0,0,0,0,1,191000.0
10.0,12.0,10.0,5.0,4.0,0.0,9,0.0,0,0,0,0,0,0,0,0,0,0,0,1,59618.0
10.0,12.0,11.0,3.0,4.0,0.0,1,10.0,4,0,0,0,0,0,0,0,0,0,1,1,145386.0
14.0,20.0,10.0,2.0,6.0,0.0,6,2.0,4,0,1,1,0,0,0,0,0,0,0,1,105000.0
16.0,26.0,10.0,5.0,6.0,0.0,10,7.0,3,0,0,1,0,0,0,0,0,0,0,1,227000.0
2.0,7.0,2.0,6.0,5.0,1.0,2,0.0,12,1,1,1,1,1,1,1,0,0,0,1,35444.0
5.0,15.0,10.0,6.0,1.0,0.0,9,4.0,1,1,0,0,0,0,0,0,0,0,0,0,114649.0
6.0,8.0,9.0,2.0,5.0,1.0,3,2.0,7,0,1,1,0,0,0,0,0,0,0,1,74110.0
5.0,6.0,5.0,3.0,3.0,0.0,6,0.0,6,1,1,1,1,0,0,0,0,0,0,1,60000.0
8.0,15.0,15.0,6.0,9.0,1.0,10,1.0,1,0,0,0,0,1,0,0,0,0,0,1,170000.0
7.0,10.0,9.0,5.0,6.0,0.0,10,1.0,6,1,1,1,1,0,0,1,0,0,0,1,180000.0
9.0,12.0,10.0,6.0,9.0,1.0,3,10.0,5,1,1,0,1,0,0,0,0,0,0,1,139628.0
10.0,14.0,10.0,6.0,4.0,1.0,6,1.0,6,1,1,0,1,0,0,0,0,0,0,1,77332.0
12.0,18.0,12.0,5.0,6.0,0.0,4,7.0,4,0,0,0,1,1,0,0,0,0,0,1,17945.0
6.0,11.0,7.0,6.0,5.0,2.0,6,1.0,4,1,0,0,0,0,0,1,0,0,0,1,25548.0
5.0,6.0,10.0,2.0,6.0,1.0,6,0.0,5,0,1,1,1,1,0,0,0,0,0,1,48333.0
5.0,6.0,6.0,6.0,4.0,0.0,8,0.0,4,0,1,1,0,0,0,0,0,0,0,1,24881.0
0.0,8.0,1.0,5.0,5.0,1.0,6,0.0,8,1,1,1,1,0,1,0,0,0,1,1,16307.0
6.0,8.0,10.0,5.0,6.0,0.0,10,2.0,4,0,1,1,0,0,0,0,0,0,0,1,187000.0
10.0,20.0,10.0,6.0,1.0,0.0,6,7.0,8,0,1,1,0,1,0,0,1,0,0,0,15000.0
17.0,22.0,17.0,5.0,5.0,1.0,3,0.0,7,0,1,1,0,0,1,0,0,0,0,0,50696.0
3.0,12.0,12.0,5.0,8.0,2.0,6,9.0,4,1,0,0,0,0,0,1,0,0,0,1,111417.0
18.0,47.0,43.0,3.0,3.0,2.0,6,1.0,4,0,1,1,0,0,1,0,0,0,0,1,33033.0
1.0,4.0,4.0,2.0,3.0,1.0,6,10.0,4,1,1,1,0,0,0,0,0,0,0,0,30000.0
5.0,6.0,5.0,6.0,4.0,1.0,6,1.0,2,1,0,0,0,0,0,0,0,0,0,1,42425.0
3.0,6.0,3.0,5.0,3.0,0.0,6,1.0,2,1,0,0,1,0,0,0,0,0,0,1,49493.0
39.0,44.0,40.0,5.0,3.0,1.0,9,9.0,6,1,0,0,0,0,0,1,0,0,0,1,89172.0
1.0,2.0,1.0,4.0,4.0,0.0,0,0.0,7,1,1,1,0,0,0,0,0,0,1,1,22378.0
1.0,2.0,2.0,3.0,8.0,1.0,1,0.0,10,0,1,1,1,1,1,0,0,0,1,1,45797.0
12.0,14.0,9.0,5.0,5.0,0.0,1,10.0,5,1,0,0,1,0,0,0,0,1,0,1,138117.0
6.0,9.0,6.0,5.0,8.0,0.0,6,10.0,10,1,1,1,1,0,1,0,0,1,1,1,53703.0
35.0,43.0,10.0,5.0,7.0,1.0,6,8.0,5,1,0,0,0,0,0,1,0,1,0,0,90000.0
12.0,15.0,10.0,5.0,5.0,1.0,10,0.0,6,0,1,1,0,0,0,0,1,0,0,1,75000.0
4.0,9.0,4.0,6.0,3.0,1.0,4,0.0,6,1,1,1,1,0,0,0,1,0,0,1,11963.0
15.0,17.0,16.0,4.0,6.0,2.0,6,2.0,2,0,1,0,0,0,0,0,0,0,0,1,99099.0
33.0,38.0,30.0,5.0,7.0,0.0,10,1.0,7,0,0,1,1,0,1,1,1,1,0,1,180000.0
3.0,10.0,3.0,5.0,5.0,1.0,10,0.0,9,0,1,0,1,0,0,0,0,0,1,1,100000.0
41.0,45.0,41.0,3.0,7.0,1.0,6,8.0,5,1,0,0,1,1,1,0,0,0,0,1,55323.0
15.0,18.0,18.0,3.0,6.0,1.0,7,0.0,9,1,1,1,1,1,1,0,1,0,0,1,75184.0
9.0,12.0,7.0,6.0,4.0,2.0,4,1.0,2,0,1,0,0,0,0,0,1,0,0,1,17945.0
5.0,6.0,5.0,7.0,7.0,0.0,8,7.0,4,0,1,1,0,0,0,1,0,0,0,1,60000.0
4.0,11.0,18.0,5.0,8.0,1.0,6,0.0,6,0,1,0,0,1,0,0,0,0,0,1,74362.0
20.0,32.0,20.0,5.0,9.0,0.0,6,2.0,5,0,1,1,1,0,0,0,0,0,0,1,76000.0
5.0,6.0,10.0,6.0,7.0,1.0,9,4.0,3,1,0,0,1,0,0,0,0,0,0,1,110827.0
12.0,18.0,12.0,3.0,4.0,0.0,1,2.0,3,0,1,0,0,0,0,0,0,0,0,1,98135.0
13.0,15.0,10.0,6.0,7.0,0.0,8,3.0,2,1,0,0,0,0,0,0,0,1,0,1,72000.0
5.0,10.0,5.0,6.0,2.0,1.0,3,10.0,1,0,0,0,0,0,0,0,0,0,0,1,64444.0
7.0,11.0,7.0,6.0,7.0,0.0,6,0.0,8,1,1,1,1,0,0,0,0,1,0,1,37592.0
7.0,12.0,7.0,6.0,4.0,0.0,6,0.0,5,1,1,0,0,0,0,0,0,0,0,1,96666.0
3.0,10.0,10.0,6.0,7.0,0.0,6,3.0,8,1,1,0,1,1,0,1,0,0,0,1,42962.0
16.0,27.0,10.0,3.0,9.0,1.0,10,1.0,11,1,1,1,0,1,0,0,0,1,1,1,220000.0
2.0,10.0,2.0,6.0,4.0,1.0,2,4.0,3,1,0,0,1,1,0,0,0,0,0,1,48333.0
4.0,10.0,10.0,5.0,4.0,0.0,6,1.0,6,1,1,0,1,1,0,1,0,0,0,1,40000.0
19.0,32.0,32.0,5.0,3.0,0.0,9,1.0,5,0,1,1,0,0,1,0,0,0,0,1,80254.0
14.0,20.0,10.0,6.0,6.0,0.0,6,8.0,3,1,0,0,0,0,0,1,0,0,0,1,91295.0
1.0,3.0,2.0,3.0,4.0,2.0,10,0.0,3,0,1,1,0,0,0,0,0,0,0,1,95000.0
13.0,17.0,12.0,5.0,6.0,0.0,10,10.0,9,1,1,1,1,1,1,0,0,0,0,1,111000.0
1.0,13.0,1.0,6.0,5.0,1.0,6,1.0,1,0,0,0,0,0,1,0,0,0,0,1,45212.0
4.0,4.0,4.0,4.0,2.0,1.0,5,10.0,7,1,1,0,1,0,0,0,0,1,0,0,73036.0
16.0,19.0,17.0,6.0,4.0,0.0,3,5.0,17,1,1,1,1,1,0,1,0,1,0,1,128887.0
6.0,13.0,17.0,6.0,9.0,1.0,10,0.0,7,1,1,1,1,0,1,0,0,0,0,1,134000.0
1.0,7.0,1.0,5.0,9.0,1.0,10,1.0,3,1,0,0,0,1,0,0,0,0,0,1,145000.0
5.0,5.0,10.0,3.0,9.0,0.0,7,0.0,3,0,0,1,1,1,0,0,0,0,0,1,29537.0
25.0,29.0,25.0,5.0,5.0,0.0,9,6.0,5,0,1,1,1,0,1,0,0,0,0,1,121018.0
15.0,25.0,10.0,6.0,2.0,0.0,3,0.0,6,1,1,1,0,0,0,0,0,0,1,1,103110.0
1.0,10.0,10.0,5.0,3.0,1.0,3,1.0,4,0,1,0,1,0,0,0,1,0,0,1,60147.0
2.0,10.0,10.0,5.0,7.0,1.0,10,1.0,3,0,1,0,0,0,1,0,0,0,0,1,180000.0
12.0,27.0,12.0,6.0,2.0,0.0,6,1.0,4,1,1,1,0,0,0,0,0,0,1,1,72000.0
9.0,9.0,10.0,5.0,7.0,1.0,9,0.0,5,0,1,1,0,0,1,0,0,0,0,1,89172.0
28.0,39.0,25.0,3.0,4.0,1.0,6,10.0,4,1,0,0,0,1,0,0,0,1,1,1,107406.0
10.0,14.0,10.0,4.0,5.0,1.0,10,0.0,5,0,1,1,1,0,1,0,0,0,0,1,150000.0
15.0,18.0,15.0,6.0,4.0,0.0,10,10.0,7,1,1,1,1,0,0,0,0,0,1,0,95550.0
1.0,5.0,10.0,5.0,4.0,1.0,8,9.0,6,1,0,0,0,1,0,1,0,0,0,1,27427.0
10.0,14.0,10.0,4.0,1.0,0.0,10,0.0,3,0,1,1,0,0,0,0,0,0,0,0,170000.0
8.0,16.0,10.0,6.0,9.0,0.0,4,0.0,3,0,0,0,0,1,0,1,0,0,0,1,16151.0
7.0,15.0,7.0,6.0,6.0,0.0,6,0.0,3,0,0,1,1,0,0,0,0,0,0,1,64444.0
1.0,7.0,1.0,4.0,6.0,0.0,10,3.0,7,1,1,0,1,1,0,1,0,0,0,1,33000.0
6.0,12.0,6.0,6.0,8.0,0.0,8,1.0,9,0,1,1,1,1,0,0,0,0,0,1,59073.0
10.0,16.0,10.0,6.0,3.0,0.0,1,7.0,5,0,1,0,0,0,0,0,0,0,0,1,109039.0
3.0,12.0,10.0,5.0,6.0,1.0,10,0.0,6,1,1,1,0,0,1,0,0,0,0,1,115000.0
7.0,16.0,10.0,5.0,4.0,1.0,5,5.0,7,1,1,1,1,0,0,1,0,0,0,1,44037.0
10.0,15.0,10.0,6.0,4.0,0.0,3,1.0,2,0,0,1,0,0,0,0,0,0,0,1,64444.0
9.0,14.0,9.0,2.0,4.0,1.0,6,10.0,3,1,0,0,1,0,0,0,1,0,0,1,107406.0
4.0,10.0,4.0,5.0,4.0,0.0,1,2.0,3,0,1,0,0,0,0,0,0,0,0,1,49431.0
8.0,8.0,10.0,6.0,1.0,0.0,6,1.0,7,1,1,0,1,1,0,0,0,0,0,0,74239.0
13.0,15.0,13.0,6.0,3.0,1.0,6,1.0,4,1,1,1,0,0,1,0,0,0,0,1,86870.0
4.0,12.0,10.0,2.0,2.0,2.0,6,0.0,10,1,1,1,1,1,0,0,1,0,0,1,16000.0
14.0,21.0,17.0,6.0,6.0,2.0,6,4.0,5,0,0,0,1,1,0,0,0,0,0,1,107563.0
25.0,26.0,25.0,3.0,7.0,1.0,6,0.0,4,1,1,0,0,0,1,0,0,0,0,1,57230.0
3.0,6.0,3.0,6.0,3.0,1.0,2,0.0,8,1,1,1,1,1,0,0,0,0,1,1,38666.0
9.0,16.0,9.0,6.0,7.0,1.0,3,1.0,3,0,0,0,0,1,1,0,0,1,0,0,68740.0
5.0,6.0,6.0,3.0,3.0,1.0,6,2.0,3,0,1,1,0,0,0,0,0,0,0,1,105706.0
12.0,15.0,10.0,5.0,6.0,2.0,6,0.0,6,1,1,1,0,0,1,0,0,0,0,1,98015.0
4.0,20.0,18.0,6.0,6.0,1.0,10,10.0,7,1,1,0,1,0,1,0,0,0,0,1,90000.0
27.0,40.0,10.0,5.0,3.0,0.0,6,8.0,3,1,0,0,0,0,0,1,0,0,0,1,122913.0
20.0,34.0,24.0,5.0,8.0,1.0,9,6.0,4,1,1,0,0,0,0,0,1,0,0,1,63694.0
24.0,26.0,24.0,4.0,5.0,0.0,9,0.0,5,1,1,1,1,0,0,0,0,0,0,1,78980.0
10.0,14.0,10.0,6.0,7.0,0.0,6,1.0,1,0,0,0,0,1,0,0,0,0,0,1,44818.0
26.0,29.0,35.0,7.0,9.0,0.0,10,0.0,5,0,1,1,0,0,1,0,0,0,0,1,164000.0
8.0,15.0,8.0,5.0,9.0,0.0,10,0.0,7,1,1,1,0,0,1,0,0,0,0,1,210000.0
11.0,18.0,11.0,5.0,8.0,1.0,4,7.0,5,0,0,0,0,0,0,1,0,0,0,1,31105.0
1.0,6.0,1.0,5.0,2.0,0.0,6,1.0,1,1,0,0,0,0,0,0,0,0,0,1,38666.0
4.0,7.0,4.0,6.0,7.0,1.0,2,9.0,1,0,0,0,0,0,0,1,0,0,0,1,40814.0
6.0,15.0,6.0,5.0,5.0,1.0,0,0.0,7,0,1,1,1,0,0,0,1,0,1,1,40281.0
7.0,12.0,10.0,5.0,2.0,0.0,1,0.0,11,0,1,1,1,0,1,0,1,1,0,1,79962.0
2.0,5.0,2.0,5.0,7.0,2.0,6,9.0,5,1,0,0,0,0,0,1,0,0,0,1,64444.0
2.0,11.0,3.0,3.0,5.0,2.0,10,10.0,8,1,0,0,0,0,1,0,0,0,0,1,45000.0
20.0,23.0,20.0,5.0,4.0,1.0,1,0.0,6,0,1,1,1,1,0,0,0,0,0,1,76328.0
5.0,8.0,5.0,6.0,3.0,1.0,6,0.0,4,1,1,0,0,0,0,0,0,0,0,1,51555.0
6.0,11.0,6.0,6.0,5.0,1.0,6,2.0,7,0,1,1,1,0,0,0,1,1,0,1,34370.0
2.0,2.0,2.0,5.0,4.0,0.0,6,0.0,4,0,1,0,1,0,1,0,0,0,0,1,26351.0
5.0,8.0,14.0,5.0,8.0,0.0,7,1.0,6,0,1,1,1,1,0,0,0,0,0,1,42962.0
2.0,8.0,10.0,6.0,7.0,2.0,5,1.0,5,1,0,0,1,1,0,0,0,0,0,1,52629.0
17.0,30.0,17.0,2.0,7.0,0.0,3,2.0,3,0,1,1,0,1,0,0,0,0,0,0,128887.0
20.0,26.0,18.0,3.0,9.0,1.0,6,5.0,3,1,1,0,0,0,0,0,0,0,0,1,51159.0
35.0,40.0,35.0,6.0,3.0,0.0,6,0.0,12,1,0,1,1,0,1,1,0,0,0,1,102667.0
35.0,40.0,37.0,4.0,5.0,1.0,1,8.0,3,0,0,0,1,0,1,0,0,0,0,1,79962.0
24.0,27.0,25.0,5.0,5.0,0.0,6,0.0,3,1,1,0,0,0,0,0,0,0,0,0,128887.0
12.0,30.0,17.0,7.0,7.0,1.0,10,10.0,8,1,0,0,0,0,0,1,0,0,0,0,60000.0
3.0,5.0,4.0,3.0,7.0,0.0,10,0.0,6,0,1,1,1,1,0,0,0,0,0,1,96000.0
7.0,7.0,10.0,6.0,5.0,1.0,3,10.0,6,1,1,1,1,0,0,0,0,1,0,1,91295.0
36.0,45.0,36.0,3.0,4.0,2.0,10,6.0,8,0,1,0,0,0,1,1,1,0,0,1,110000.0
2.0,8.0,5.0,5.0,9.0,1.0,3,8.0,4,1,0,0,0,0,0,1,0,0,0,0,42962.0
17.0,20.0,10.0,5.0,2.0,0.0,8,0.0,4,0,1,0,1,0,1,0,0,0,0,1,50000.0
4.0,6.0,5.0,5.0,5.0,1.0,6,0.0,4,0,1,0,1,0,1,0,0,0,0,1,15720.0
7.0,7.0,5.0,4.0,4.0,0.0,3,0.0,5,0,1,1,0,0,0,0,0,0,0,0,71500.0
8.0,12.0,10.0,6.0,4.0,0.0,8,1.0,1,0,0,0,0,1,0,0,0,0,0,1,65000.0
38.0,42.0,30.0,6.0,9.0,1.0,9,0.0,12,1,1,1,1,1,0,0,0,1,0,1,159235.0
14.0,24.0,14.0,2.0,2.0,0.0,3,0.0,7,1,1,0,1,1,0,0,1,0,0,1,38666.0
9.0,13.0,10.0,5.0,1.0,1.0,4,10.0,4,1,1,0,0,1,1,0,0,0,0,0,47854.0
24.0,35.0,35.0,3.0,5.0,0.0,10,1.0,5,1,0,1,1,1,0,0,0,1,0,1,190000.0
20.0,30.0,10.0,5.0,7.0,0.0,6,8.0,2,0,0,0,0,0,1,0,0,0,0,1,65152.0
5.0,13.0,5.0,5.0,5.0,1.0,6,2.0,6,1,1,1,0,0,0,0,0,0,0,1,43883.0
10.0,17.0,10.0,6.0,6.0,1.0,3,0.0,6,0,1,1,1,0,1,0,0,0,0,1,80555.0
16.0,19.0,16.0,5.0,4.0,2.0,6,1.0,7,0,1,1,1,0,1,0,0,0,1,1,102950.0
5.0,14.0,10.0,5.0,6.0,1.0,3,1.0,4,0,0,0,0,1,0,0,1,1,0,0,51555.0
15.0,19.0,10.0,5.0,4.0,0.0,7,8.0,8,1,1,1,1,0,1,0,1,0,0,1,52629.0
14.0,25.0,20.0,6.0,4.0,1.0,3,0.0,6,0,1,0,1,0,1,0,0,0,0,1,53703.0
19.0,27.0,19.0,6.0,2.0,0.0,6,1.0,12,0,1,1,1,1,1,0,0,0,1,0,45875.0
4.0,10.0,4.0,3.0,4.0,2.0,3,10.0,3,0,0,0,0,0,1,0,1,0,0,1,32222.0
0.0,8.0,4.0,5.0,7.0,1.0,3,10.0,9,1,1,1,1,1,0,0,0,0,0,1,85925.0
4.0,5.0,5.0,5.0,4.0,0.0,6,4.0,1,1,0,0,0,0,0,0,0,0,0,1,57669.0
7.0,8.0,6.0,6.0,9.0,1.0,10,1.0,4,1,0,1,0,1,0,0,0,0,0,1,186271.0
3.0,10.0,6.0,5.0,5.0,0.0,10,0.0,5,0,1,1,0,0,1,0,0,0,0,1,95000.0
1.0,10.0,1.0,6.0,7.0,1.0,2,3.0,7,1,1,0,1,0,0,0,0,0,0,1,48333.0
22.0,35.0,22.0,5.0,7.0,0.0,1,1.0,5,1,0,1,0,1,0,0,0,0,0,1,218079.0
7.0,12.0,7.0,7.0,3.0,1.0,2,10.0,10,1,1,0,0,1,0,1,0,0,0,1,94517.0
10.0,20.0,10.0,7.0,7.0,1.0,4,10.0,0,0,0,0,0,0,0,0,0,0,0,1,23927.0
25.0,25.0,10.0,5.0,9.0,1.0,10,4.0,3,0,0,1,1,0,0,1,0,0,0,1,190000.0
26.0,28.0,10.0,6.0,1.0,0.0,3,0.0,5,0,1,1,1,1,0,0,0,0,0,0,161109.0
10.0,14.0,10.0,6.0,2.0,0.0,6,10.0,7,0,1,0,1,0,0,0,1,0,0,1,53703.0
15.0,20.0,10.0,3.0,5.0,1.0,2,1.0,6,1,1,1,1,0,0,0,0,0,0,1,48333.0
3.0,4.0,2.0,3.0,2.0,2.0,6,10.0,2,0,1,1,0,0,0,0,0,0,0,0,44000.0
8.0,11.0,10.0,6.0,3.0,0.0,8,0.0,4,0,1,0,1,0,0,0,1,0,0,1,26066.0
8.0,12.0,10.0,5.0,6.0,1.0,6,5.0,6,1,1,0,0,1,0,0,0,0,0,1,145715.0
7.0,10.0,10.0,5.0,9.0,1.0,4,1.0,1,1,0,0,0,0,0,0,0,0,0,1,29909.0
4.0,5.0,4.0,5.0,6.0,0.0,10,1.0,1,0,0,1,0,0,0,0,0,0,0,1,150000.0
18.0,20.0,17.0,3.0,3.0,1.0,5,0.0,3,0,0,1,0,0,1,0,0,0,0,1,53703.0
17.0,24.0,17.0,5.0,7.0,1.0,10,2.0,4,0,1,1,0,0,0,0,0,0,0,1,165000.0
10.0,12.0,10.0,6.0,7.0,0.0,6,7.0,2,0,1,0,0,0,0,0,0,0,0,0,161109.0
15.0,18.0,16.0,6.0,3.0,1.0,6,10.0,4,0,0,0,0,0,1,0,0,1,0,1,37592.0
11.0,13.0,11.0,6.0,6.0,0.0,3,1.0,3,0,0,0,1,0,0,0,0,0,0,1,91295.0
3.0,4.0,3.0,5.0,5.0,1.0,9,0.0,5,1,1,1,0,0,0,0,0,0,0,1,46777.0
10.0,14.0,11.0,6.0,5.0,1.0,8,0.0,5,0,1,1,0,0,1,0,0,0,0,1,51984.0
3.0,9.0,3.0,6.0,4.0,1.0,2,0.0,4,1,1,1,0,0,0,0,0,0,0,1,62296.0
6.0,8.0,10.0,5.0,9.0,2.0,6,4.0,5,1,1,1,0,0,0,0,0,0,0,0,132132.0
26.0,32.0,26.0,3.0,4.0,0.0,6,9.0,12,1,1,0,1,0,0,1,1,1,0,1,54777.0
1.0,4.0,10.0,2.0,5.0,2.0,6,8.0,3,1,0,0,0,1,1,0,0,0,0,0,15037.0
9.0,11.0,10.0,7.0,4.0,0.0,0,10.0,4,1,0,0,1,0,0,0,0,0,0,1,12122.0
30.0,40.0,10.0,5.0,1.0,1.0,5,10.0,7,0,1,1,1,1,0,0,0,0,0,1,107406.0
1.0,2.0,1.0,5.0,2.0,0.0,10,0.0,7,1,0,1,1,1,0,0,0,0,0,1,85000.0
6.0,9.0,6.0,7.0,4.0,0.0,10,4.0,3,0,0,0,0,0,0,0,0,0,0,1,93000.0
23.0,27.0,23.0,5.0,7.0,0.0,0,1.0,6,0,1,0,1,1,0,0,0,0,0,1,67135.0
8.0,13.0,8.0,6.0,8.0,1.0,9,10.0,2,1,0,0,1,0,0,0,0,0,0,1,146496.0
19.0,29.0,10.0,3.0,2.0,2.0,6,0.0,4,0,1,0,1,0,0,0,1,0,0,1,145715.0
5.0,8.0,5.0,3.0,4.0,1.0,6,2.0,7,0,1,1,1,0,1,0,0,0,0,1,26852.0
20.0,32.0,32.0,5.0,9.0,1.0,6,1.0,8,0,0,0,0,1,1,1,0,1,0,1,29696.0
18.0,20.0,18.0,5.0,7.0,1.0,6,0.0,8,1,1,1,1,1,0,0,0,0,0,1,70030.0
10.0,14.0,10.0,5.0,8.0,0.0,0,1.0,2,0,1,1,0,0,0,0,0,0,0,1,30024.0
15.0,20.0,20.0,5.0,4.0,2.0,1,0.0,6,0,1,1,1,0,1,0,1,0,0,1,72693.0
17.0,28.0,17.0,5.0,4.0,1.0,10,6.0,4,0,1,0,0,0,0,0,0,1,0,1,180000.0
15.0,20.0,15.0,7.0,5.0,1.0,7,0.0,4,1,0,0,1,0,0,0,1,0,0,1,102036.0
50.0,51.0,50.0,7.0,9.0,0.0,10,10.0,6,1,0,0,0,0,0,1,0,0,0,1,210000.0
10.0,14.0,12.0,5.0,4.0,2.0,4,0.0,4,0,1,0,1,0,1,0,0,0,0,1,29909.0
4.0,9.0,10.0,6.0,4.0,2.0,2,0.0,7,1,1,1,1,0,0,0,1,0,0,1,42962.0
8.0,16.0,13.0,5.0,2.0,0.0,6,1.0,9,0,1,1,0,1,0,1,0,1,1,1,139271.0
6.0,10.0,6.0,5.0,9.0,0.0,6,0.0,7,1,1,1,1,0,0,0,1,0,0,1,53703.0
24.0,34.0,24.0,6.0,5.0,0.0,6,1.0,1,0,0,0,0,0,1,0,0,0,0,1,49407.0
20.0,26.0,20.0,5.0,6.0,2.0,6,10.0,13,1,1,1,1,1,1,1,0,1,0,1,104955.0
20.0,35.0,10.0,5.0,9.0,0.0,10,2.0,6,0,1,1,1,0,0,0,0,0,0,1,135000.0
15.0,20.0,20.0,6.0,7.0,1.0,8,0.0,1,0,0,1,0,0,0,0,0,0,0,1,88000.0
28.0,34.0,10.0,7.0,5.0,2.0,7,10.0,6,1,0,0,0,1,0,0,0,0,0,1,75184.0
20.0,30.0,20.0,6.0,3.0,0.0,6,0.0,4,1,1,1,0,0,0,0,0,0,0,1,237600.0
5.0,9.0,5.0,5.0,7.0,1.0,10,1.0,4,1,0,1,1,1,0,0,0,0,0,1,214000.0
8.0,18.0,10.0,5.0,5.0,1.0,6,8.0,2,0,0,0,0,0,0,1,0,0,0,1,27675.0
13.0,16.0,10.0,3.0,9.0,0.0,6,6.0,4,0,1,0,0,0,0,0,0,0,1,1,300600.0
7.0,10.0,10.0,6.0,5.0,0.0,6,1.0,3,0,0,0,1,1,0,0,0,0,0,1,45111.0
5.0,10.0,10.0,6.0,4.0,0.0,8,1.0,4,0,1,1,1,0,0,0,0,0,0,1,40000.0
10.0,17.0,18.0,2.0,4.0,1.0,6,0.0,12,1,1,1,1,1,0,0,1,0,0,1,27545.0
6.0,9.0,10.0,3.0,1.0,0.0,6,0.0,6,0,1,1,0,0,0,0,0,1,0,0,85925.0
2.0,3.0,3.0,6.0,6.0,0.0,8,10.0,2,0,1,0,0,0,1,0,0,0,0,1,14810.0
4.0,6.0,10.0,5.0,9.0,0.0,1,10.0,4,1,1,0,0,0,0,0,0,1,0,1,167194.0
22.0,25.0,25.0,5.0,4.0,1.0,5,2.0,2,0,1,1,0,0,0,0,0,0,0,0,64444.0
2.0,9.0,10.0,5.0,6.0,2.0,6,0.0,10,1,1,0,1,1,1,0,1,0,0,1,43006.0
8.0,13.0,13.0,5.0,2.0,0.0,6,1.0,2,1,0,0,0,0,0,0,0,0,0,1,12000.0
11.0,23.0,11.0,5.0,7.0,1.0,3,1.0,3,0,0,0,0,1,0,0,0,0,0,1,64444.0
4.0,7.0,12.0,5.0,8.0,1.0,0,10.0,1,0,1,0,0,0,0,0,0,0,0,1,17903.0
2.0,8.0,1.0,6.0,2.0,1.0,9,10.0,6,1,0,0,1,0,0,1,0,0,0,1,43949.0
6.0,9.0,10.0,5.0,4.0,1.0,6,1.0,1,0,0,0,0,0,0,0,0,0,0,1,63644.0
5.0,10.0,5.0,5.0,5.0,0.0,10,1.0,3,0,0,0,1,0,0,0,0,1,0,1,157000.0
10.0,13.0,10.0,6.0,4.0,1.0,8,0.0,10,1,1,1,1,1,1,1,0,0,0,1,56773.0
6.0,10.0,6.0,5.0,4.0,2.0,9,0.0,9,1,1,1,1,0,1,0,0,0,0,1,41401.0
4.0,6.0,5.0,6.0,6.0,0.0,0,4.0,5,1,0,0,1,0,0,0,0,0,0,1,11562.0
4.0,12.0,4.0,6.0,4.0,1.0,6,1.0,2,1,0,0,0,0,1,0,0,0,0,1,52461.0
12.0,15.0,10.0,5.0,7.0,0.0,10,1.0,5,0,0,0,1,1,0,0,0,0,0,1,225000.0
4.0,4.0,10.0,7.0,4.0,2.0,5,10.0,3,0,1,0,1,0,0,0,0,0,0,1,161109.0
20.0,25.0,10.0,5.0,9.0,0.0,10,10.0,2,0,0,0,1,0,0,0,0,0,0,1,200000.0
6.0,10.0,6.0,3.0,8.0,0.0,2,0.0,7,1,1,0,0,0,0,1,0,0,0,1,85925.0
10.0,20.0,10.0,6.0,7.0,1.0,3,10.0,13,1,1,1,1,0,1,1,0,1,0,1,85925.0
1.0,3.0,1.0,6.0,5.0,2.0,7,0.0,6,1,1,0,1,0,0,0,0,0,0,1,37592.0
11.0,15.0,11.0,6.0,4.0,0.0,8,2.0,3,0,1,1,0,0,0,0,0,0,0,1,71090.0
5.0,5.0,5.0,6.0,9.0,1.0,2,10.0,6,0,1,1,1,1,0,0,0,0,0,1,36303.0
32.0,28.0,25.0,6.0,4.0,0.0,6,10.0,10,1,1,1,1,1,0,1,1,0,0,1,85000.0
4.0,15.0,5.0,6.0,2.0,1.0,6,0.0,5,0,1,1,0,0,1,0,0,0,0,1,86039.0
2.0,6.0,2.0,3.0,8.0,1.0,3,5.0,6,0,1,0,0,1,0,0,0,0,0,0,10741.0
12.0,14.0,12.0,6.0,2.0,1.0,6,0.0,5,1,1,0,1,0,0,0,1,0,0,1,17336.0
4.0,5.0,10.0,5.0,5.0,0.0,8,10.0,5,0,1,1,1,0,0,0,0,0,1,1,62796.0
4.0,6.0,10.0,6.0,5.0,0.0,8,0.0,2,0,1,0,0,0,1,0,0,0,0,1,118483.0
12.0,14.0,10.0,6.0,5.0,1.0,3,1.0,3,0,0,1,0,0,0,1,0,0,1,1,107406.0
26.0,31.0,26.0,5.0,5.0,0.0,10,0.0,14,1,1,1,0,1,0,1,0,0,1,1,150000.0
6.0,20.0,10.0,6.0,6.0,0.0,3,10.0,2,1,0,0,0,0,0,0,0,0,0,1,98814.0
5.0,8.0,6.0,6.0,4.0,0.0,8,10.0,1,1,0,0,0,0,0,0,0,0,0,1,80555.0
12.0,18.0,13.0,6.0,6.0,1.0,6,6.0,2,0,0,0,0,0,0,0,0,0,0,1,96666.0
0.0,4.0,1.0,5.0,3.0,2.0,6,2.0,2,0,1,1,0,0,0,0,0,0,0,1,23936.0
8.0,13.0,8.0,6.0,2.0,1.0,8,8.0,9,1,1,0,1,1,0,1,0,0,0,1,42533.0
12.0,15.0,10.0,6.0,4.0,1.0,6,10.0,4,0,1,0,1,0,1,0,0,0,0,0,85846.0
17.0,24.0,10.0,6.0,5.0,2.0,9,10.0,9,1,1,0,1,0,1,1,0,0,0,1,76433.0
15.0,19.0,10.0,6.0,3.0,1.0,7,1.0,3,0,0,0,1,1,0,0,0,0,0,1,51555.0
0.0,5.0,1.0,5.0,7.0,0.0,9,4.0,4,1,1,0,1,0,0,0,0,0,0,1,56051.0
10.0,20.0,10.0,5.0,3.0,2.0,10,10.0,10,1,1,0,1,1,1,1,0,0,0,1,72000.0
20.0,25.0,20.0,5.0,4.0,1.0,10,6.0,4,0,1,0,1,0,0,0,0,0,0,1,26000.0
3.0,8.0,3.0,5.0,8.0,1.0,9,0.0,5,0,0,1,1,0,1,0,0,0,1,1,71337.0
8.0,12.0,12.0,5.0,4.0,0.0,0,0.0,3,0,1,0,0,0,0,0,0,0,0,1,90000.0
12.0,17.0,10.0,3.0,3.0,2.0,6,10.0,6,0,1,0,1,0,0,0,0,0,0,1,74400.0
5.0,7.0,6.0,5.0,8.0,1.0,10,2.0,3,0,1,1,0,0,0,0,0,0,0,1,160000.0
13.0,15.0,20.0,5.0,3.0,1.0,10,10.0,9,1,1,0,1,1,0,1,0,0,0,1,106000.0
12.0,14.0,12.0,5.0,6.0,1.0,9,8.0,4,1,0,0,0,1,0,0,0,0,1,1,68789.0
3.0,4.0,10.0,5.0,3.0,2.0,6,2.0,2,0,1,0,0,0,0,0,0,0,0,1,71280.0
32.0,40.0,32.0,5.0,5.0,0.0,10,1.0,4,1,0,0,1,0,0,0,0,0,0,1,220000.0
3.0,5.0,3.0,5.0,4.0,0.0,2,1.0,3,1,1,0,0,0,0,0,0,0,0,1,32222.0
5.0,13.0,5.0,5.0,4.0,1.0,3,0.0,10,0,1,1,0,1,1,0,0,1,1,1,55851.0
6.0,14.0,10.0,3.0,1.0,0.0,6,0.0,5,0,1,1,1,1,0,0,0,0,0,0,28011.0
5.0,9.0,5.0,2.0,5.0,2.0,5,9.0,6,1,0,0,0,1,0,1,0,0,0,1,59073.0
13.0,20.0,13.0,5.0,5.0,0.0,3,10.0,4,1,0,0,0,0,1,1,0,0,0,1,67666.0
6.0,10.0,6.0,5.0,6.0,1.0,6,0.0,5,0,1,1,1,0,0,0,0,0,0,1,86999.0
10.0,15.0,10.0,5.0,2.0,0.0,1,7.0,14,1,1,1,0,0,1,1,0,1,0,1,72693.0
3.0,4.0,3.0,3.0,5.0,0.0,6,2.0,1,0,1,0,0,0,0,0,0,0,0,1,32378.0
12.0,23.0,12.0,5.0,9.0,0.0,1,10.0,3,1,1,0,0,0,0,0,1,0,0,1,363465.0
22.0,23.0,23.0,3.0,6.0,1.0,6,1.0,3,0,0,0,1,0,0,0,0,0,0,1,129524.0
9.0,10.0,10.0,5.0,4.0,1.0,3,10.0,7,1,1,1,0,0,0,0,1,1,0,1,64444.0
38.0,44.0,10.0,5.0,1.0,0.0,9,0.0,7,0,1,0,0,1,1,1,0,0,0,0,63694.0
3.0,9.0,5.0,5.0,2.0,0.0,4,0.0,9,1,1,1,0,0,0,1,1,1,1,0,71781.0
5.0,9.0,5.0,5.0,4.0,1.0,6,8.0,3,0,1,0,0,0,1,0,0,0,0,1,38243.0
5.0,6.0,6.0,6.0,4.0,0.0,8,1.0,4,1,1,0,1,0,0,0,0,1,0,1,68000.0
12.0,17.0,10.0,6.0,1.0,0.0,8,0.0,8,1,1,1,1,0,0,0,0,0,0,0,30000.0
2.0,9.0,10.0,6.0,5.0,1.0,9,2.0,3,0,1,1,0,0,0,0,0,0,0,0,43312.0
8.0,10.0,10.0,3.0,7.0,0.0,10,0.0,6,0,0,1,1,0,0,0,0,1,0,1,170000.0
3.0,10.0,5.0,5.0,6.0,1.0,9,1.0,2,0,0,0,0,0,1,0,0,0,0,1,63694.0
5.0,7.0,5.0,5.0,8.0,0.0,8,0.0,1,0,0,0,0,0,1,0,0,0,0,1,37026.0
4.0,6.0,4.0,6.0,8.0,1.0,3,1.0,7,1,0,1,0,1,0,0,0,1,0,1,64444.0
10.0,18.0,12.0,3.0,2.0,1.0,5,0.0,11,0,1,0,1,1,0,1,1,0,0,0,36518.0
3.0,20.0,3.0,5.0,6.0,2.0,10,10.0,7,0,1,0,0,0,0,1,0,1,0,1,60000.0
26.0,30.0,10.0,6.0,9.0,1.0,6,10.0,9,1,1,0,1,1,0,1,0,0,0,1,85925.0
8.0,13.0,8.0,5.0,9.0,1.0,6,1.0,7,1,0,0,1,1,0,0,0,0,0,1,47548.0
20.0,24.0,24.0,6.0,5.0,1.0,3,6.0,10,1,1,1,0,1,0,1,0,0,0,1,102036.0
7.0,8.0,7.0,5.0,5.0,1.0,9,2.0,1,0,0,0,0,0,0,0,0,0,0,1,105095.0
6.0,9.0,9.0,5.0,7.0,1.0,6,8.0,2,0,0,0,0,0,1,1,0,0,0,1,48916.0
4.0,6.0,4.0,5.0,3.0,1.0,3,0.0,4,0,1,0,0,1,0,0,0,0,0,1,39740.0
7.0,10.0,7.0,5.0,7.0,0.0,4,0.0,5,0,1,1,1,1,0,0,0,0,0,1,20936.0
9.0,22.0,7.0,6.0,7.0,0.0,3,9.0,2,1,0,0,0,0,0,1,0,0,0,1,75184.0
6.0,9.0,6.0,6.0,9.0,0.0,8,1.0,3,0,0,1,0,1,0,0,0,0,0,1,49368.0
27.0,37.0,10.0,6.0,5.0,1.0,6,7.0,8,1,0,0,0,1,0,1,0,0,0,1,184793.0
12.0,20.0,12.0,6.0,3.0,0.0,8,10.0,7,1,1,1,1,0,1,0,0,0,0,1,59241.0
2.0,5.0,10.0,4.0,4.0,1.0,8,0.0,11,1,1,1,1,1,1,1,0,0,1,1,24000.0
23.0,23.0,10.0,5.0,2.0,0.0,10,1.0,5,0,1,0,0,0,0,1,1,0,0,1,170000.0
10.0,12.0,11.0,5.0,9.0,2.0,6,8.0,5,1,0,0,0,0,0,1,0,0,0,1,107937.0
3.0,5.0,3.0,6.0,5.0,0.0,6,0.0,11,1,1,1,0,1,0,0,1,1,0,1,21886.0
6.0,10.0,6.0,2.0,9.0,1.0,6,10.0,4,1,1,0,1,0,0,0,0,0,0,1,47778.0
8.0,12.0,8.0,3.0,2.0,0.0,6,10.0,3,0,0,0,0,0,0,0,0,1,1,1,72673.0
3.0,6.0,10.0,5.0,3.0,2.0,6,0.0,6,1,1,1,1,0,1,0,0,0,0,1,62763.0
7.0,12.0,10.0,6.0,1.0,0.0,6,0.0,5,0,1,1,1,0,0,0,1,0,0,0,41026.0
22.0,26.0,10.0,6.0,1.0,1.0,3,8.0,2,0,0,0,0,0,1,1,0,0,0,0,161109.0
3.0,4.0,2.0,5.0,4.0,1.0,6,1.0,9,0,1,1,1,1,0,0,0,1,1,0,32222.0
15.0,25.0,15.0,6.0,5.0,2.0,6,10.0,9,1,1,1,1,0,0,0,1,1,0,1,64444.0
25.0,25.0,27.0,3.0,4.0,1.0,10,0.0,7,1,1,0,1,0,1,0,0,0,0,1,135000.0
11.0,15.0,10.0,6.0,9.0,0.0,10,1.0,4,1,0,0,1,0,0,0,0,1,0,1,315000.0
2.0,8.0,2.0,6.0,6.0,1.0,5,7.0,6,1,0,0,0,1,0,0,0,0,1,1,64444.0
10.0,10.0,15.0,5.0,6.0,2.0,9,0.0,3,0,0,0,1,0,1,0,0,0,0,1,50955.0
4.0,0.0,7.0,5.0,3.0,1.0,6,0.0,4,0,1,0,1,0,1,0,0,0,0,1,27840.0
17.0,21.0,17.0,6.0,4.0,0.0,6,1.0,2,0,0,0,1,0,0,0,0,0,0,1,75184.0
30.0,35.0,30.0,6.0,7.0,2.0,3,9.0,2,0,0,0,0,0,1,0,0,0,0,1,77332.0
11.0,15.0,11.0,5.0,3.0,0.0,9,10.0,5,0,1,1,0,1,0,0,0,1,0,0,152865.0
4.0,4.0,4.0,5.0,5.0,2.0,3,9.0,5,1,0,0,0,0,1,1,0,0,1,0,45111.0
35.0,45.0,10.0,5.0,1.0,0.0,9,0.0,6,1,1,1,1,0,1,0,0,0,0,0,63694.0
24.0,24.0,30.0,5.0,4.0,2.0,6,0.0,5,0,1,1,1,0,1,0,0,0,0,1,45111.0
4.0,8.0,4.0,5.0,4.0,2.0,6,0.0,9,1,1,1,1,1,0,1,1,0,0,1,53117.0
26.0,41.0,28.0,3.0,2.0,1.0,6,1.0,13,1,1,1,0,1,0,1,1,1,0,1,53968.0
4.0,5.0,10.0,3.0,9.0,0.0,6,1.0,5,1,1,1,0,1,0,0,0,0,0,1,32222.0
13.0,17.0,13.0,5.0,4.0,2.0,6,1.0,4,0,1,1,0,0,0,0,1,0,0,1,80220.0
8.0,10.0,10.0,6.0,3.0,0.0,8,0.0,4,0,1,1,0,1,0,0,0,0,0,1,63720.0
9.0,13.0,9.0,5.0,9.0,1.0,10,1.0,4,0,1,0,0,1,1,0,0,0,0,1,180000.0
1.0,9.0,1.0,2.0,2.0,2.0,6,1.0,9,1,1,0,1,0,1,0,1,0,0,1,47521.0
13.0,15.0,15.0,5.0,3.0,0.0,9,0.0,7,1,1,0,1,0,0,0,1,0,0,1,59745.0
17.0,23.0,17.0,5.0,4.0,1.0,10,9.0,4,0,0,0,0,0,1,1,0,0,0,1,145000.0
7.0,12.0,10.0,6.0,4.0,1.0,10,3.0,5,1,1,0,1,0,0,0,0,0,0,1,130000.0
7.0,10.0,7.0,3.0,4.0,0.0,8,10.0,4,0,1,1,0,0,0,0,0,1,0,0,130000.0
5.0,13.0,10.0,3.0,9.0,0.0,10,0.0,8,1,1,1,1,0,1,1,0,0,0,1,133000.0
2.0,6.0,2.0,5.0,4.0,1.0,6,10.0,12,1,1,0,1,1,0,1,1,0,0,0,33033.0
16.0,20.0,18.0,6.0,5.0,0.0,8,1.0,4,1,0,1,1,1,0,0,0,0,0,1,88862.0
25.0,32.0,10.0,6.0,1.0,1.0,6,10.0,4,1,0,0,1,0,0,0,0,0,0,0,112309.0
7.0,9.0,7.0,5.0,2.0,1.0,6,0.0,7,1,1,1,0,0,1,0,0,1,0,0,106960.0
35.0,42.0,35.0,3.0,6.0,2.0,1,10.0,11,1,1,0,0,1,1,1,0,0,0,1,116309.0
5.0,11.0,7.0,6.0,4.0,1.0,6,0.0,6,1,1,1,1,0,0,0,0,0,0,1,20168.0
17.0,20.0,17.0,5.0,7.0,0.0,8,8.0,2,0,0,0,1,0,1,0,0,0,0,1,55835.0
8.0,15.0,8.0,3.0,7.0,1.0,9,0.0,10,1,1,1,1,1,0,0,1,1,1,1,152865.0
2.0,3.0,10.0,2.0,2.0,0.0,10,0.0,3,0,1,1,0,0,0,0,0,0,0,0,28080.0
1.0,7.0,5.0,3.0,4.0,1.0,3,1.0,4,1,1,1,0,0,0,0,0,0,0,1,47259.0
2.0,10.0,2.0,5.0,6.0,2.0,6,0.0,4,1,1,0,0,0,0,0,0,0,0,1,30189.0
7.0,18.0,10.0,6.0,9.0,0.0,6,10.0,16,1,0,0,1,1,0,1,1,1,0,1,69468.0
44.0,46.0,44.0,3.0,5.0,0.0,10,8.0,3,0,0,0,0,0,1,1,0,0,0,1,165000.0
15.0,15.0,20.0,3.0,7.0,0.0,10,10.0,4,1,0,0,0,0,0,0,0,1,0,1,350000.0
35.0,44.0,44.0,3.0,2.0,1.0,6,0.0,1,0,0,0,0,0,0,0,0,0,0,1,82703.0
32.0,40.0,10.0,4.0,7.0,1.0,10,0.0,9,0,1,1,1,0,1,0,0,0,0,1,105000.0
6.0,8.0,8.0,4.0,8.0,1.0,0,1.0,3,0,0,0,0,0,0,0,0,0,0,1,48487.0
10.0,13.0,10.0,5.0,7.0,1.0,10,10.0,4,1,0,0,1,0,0,1,0,0,0,1,90000.0
22.0,22.0,30.0,2.0,9.0,0.0,6,10.0,5,1,0,0,1,1,0,0,0,0,0,1,96855.0
24.0,28.0,24.0,5.0,4.0,1.0,6,0.0,4,0,0,1,0,0,0,0,0,0,0,1,64248.0
12.0,14.0,12.0,5.0,4.0,1.0,6,1.0,5,1,0,0,1,0,0,0,0,0,0,0,130305.0
7.0,10.0,7.0,3.0,4.0,1.0,10,0.0,6,0,1,1,1,0,0,0,1,0,0,1,75000.0
6.0,13.0,6.0,6.0,6.0,1.0,6,10.0,3,1,1,0,0,0,0,0,0,0,0,1,39203.0
11.0,15.0,10.0,6.0,7.0,1.0,10,10.0,6,1,1,0,1,0,0,1,0,0,0,1,165000.0
8.0,20.0,12.0,6.0,5.0,0.0,4,1.0,4,1,0,0,1,0,0,0,0,0,0,1,23927.0
32.0,32.0,10.0,3.0,2.0,1.0,9,8.0,6,1,1,0,1,0,1,0,0,0,0,0,63694.0
1.0,4.0,1.0,5.0,7.0,0.0,10,2.0,4,0,1,1,0,0,0,0,0,0,0,1,110000.0
14.0,24.0,10.0,6.0,2.0,0.0,6,0.0,1,0,0,0,0,0,0,0,0,0,0,1,48333.0
2.0,3.0,10.0,6.0,3.0,2.0,8,0.0,2,0,0,1,0,0,1,0,0,0,0,1,11848.0
2.0,11.0,2.0,5.0,4.0,1.0,10,0.0,5,1,1,0,1,0,0,0,0,0,0,1,95000.0
10.0,12.0,10.0,3.0,5.0,0.0,10,2.0,3,0,0,1,0,0,0,0,0,0,0,1,97500.0
25.0,40.0,25.0,6.0,9.0,1.0,10,7.0,11,1,1,0,1,1,0,1,0,0,0,1,350000.0
26.0,43.0,26.0,5.0,9.0,1.0,1,5.0,6,1,1,0,1,0,0,1,0,0,0,1,181732.0
18.0,24.0,18.0,6.0,4.0,0.0,6,10.0,4,1,0,0,0,0,0,0,0,0,0,1,158679.0
9.0,12.0,10.0,6.0,7.0,0.0,8,4.0,5,1,0,0,1,1,0,0,0,0,0,1,60000.0
7.0,9.0,7.0,5.0,7.0,0.0,6,0.0,5,0,1,1,1,0,1,0,0,0,0,1,72000.0
1.0,5.0,10.0,5.0,5.0,1.0,6,1.0,10,1,0,0,1,1,1,0,0,1,0,1,15037.0
11.0,15.0,10.0,4.0,2.0,2.0,6,6.0,3,0,1,0,0,0,0,0,0,0,0,1,129602.0
5.0,6.0,5.0,6.0,4.0,1.0,8,1.0,8,1,1,0,0,0,1,0,0,1,0,1,48000.0
4.0,17.0,4.0,2.0,9.0,1.0,9,8.0,6,0,1,1,1,0,0,0,0,0,0,1,152865.0
2.0,14.0,10.0,3.0,4.0,0.0,6,1.0,3,0,0,0,1,0,0,0,0,0,1,0,47660.0
12.0,18.0,10.0,7.0,5.0,2.0,2,10.0,1,1,0,0,0,0,0,0,0,0,0,1,38111.0
5.0,11.0,5.0,5.0,5.0,0.0,10,0.0,10,0,1,1,1,1,0,0,1,1,1,1,102000.0
33.0,42.0,33.0,5.0,7.0,0.0,10,0.0,7,0,1,0,1,1,0,0,0,0,0,1,130000.0
9.0,18.0,9.0,5.0,9.0,0.0,6,1.0,2,0,0,0,0,1,0,0,0,0,0,1,92492.0
20.0,33.0,10.0,3.0,5.0,1.0,6,1.0,5,0,1,0,1,0,0,0,1,0,0,0,71270.0
6.0,8.0,7.0,4.0,6.0,1.0,9,2.0,3,0,1,1,0,0,0,0,0,0,0,1,82802.0
10.0,18.0,10.0,3.0,4.0,1.0,6,0.0,5,0,1,1,1,0,0,0,1,0,0,1,115615.0
6.0,9.0,5.0,6.0,5.0,0.0,7,10.0,3,1,0,0,0,0,0,0,0,0,0,1,34370.0
21.0,25.0,10.0,5.0,5.0,0.0,9,10.0,8,1,1,1,1,0,1,0,0,0,0,1,95541.0
23.0,36.0,23.0,4.0,5.0,1.0,10,0.0,5,0,1,0,1,0,0,0,1,0,0,1,90000.0
3.0,6.0,4.0,5.0,6.0,2.0,6,2.0,3,0,1,1,0,0,0,0,0,0,0,1,39934.0
4.0,9.0,3.0,6.0,7.0,1.0,2,0.0,3,0,1,1,0,1,0,0,0,0,0,1,44037.0
6.0,10.0,15.0,5.0,9.0,1.0,10,10.0,1,1,0,0,0,0,0,0,0,0,0,1,140000.0
10.0,14.0,13.0,6.0,5.0,1.0,6,4.0,4,1,0,0,1,0,1,0,0,0,0,1,30000.0
10.0,15.0,10.0,7.0,5.0,2.0,7,9.0,4,0,1,1,1,0,0,0,0,0,0,1,42425.0
0.0,4.0,1.0,6.0,4.0,2.0,6,1.0,6,1,1,0,1,0,0,0,0,1,0,1,44037.0
3.0,4.0,8.0,3.0,4.0,1.0,10,0.0,5,1,1,1,1,0,0,0,1,0,0,1,69000.0
6.0,15.0,10.0,5.0,3.0,1.0,6,0.0,3,0,1,0,0,1,0,0,0,0,0,1,18548.0
2.0,4.0,10.0,5.0,5.0,1.0,8,0.0,3,0,1,1,0,0,0,0,0,0,0,1,18000.0
15.0,18.0,10.0,6.0,1.0,1.0,2,0.0,10,1,1,1,0,0,0,0,1,0,1,0,42962.0
24.0,25.0,25.0,6.0,9.0,1.0,3,10.0,5,1,0,0,0,0,0,1,0,0,0,1,85925.0
2.0,10.0,2.0,5.0,2.0,0.0,1,0.0,6,1,1,1,1,0,0,0,0,0,0,1,49431.0
8.0,10.0,8.0,5.0,6.0,0.0,10,0.0,9,1,1,1,1,0,0,0,0,1,1,1,176000.0
14.0,19.0,19.0,3.0,2.0,0.0,7,10.0,5,0,1,1,1,0,0,0,0,0,0,1,107406.0
10.0,15.0,10.0,6.0,9.0,0.0,6,10.0,1,0,0,0,0,0,0,0,0,0,0,0,59391.0
8.0,10.0,10.0,6.0,6.0,1.0,5,0.0,3,0,0,0,1,0,1,0,0,0,0,1,82703.0
6.0,14.0,10.0,5.0,2.0,1.0,1,0.0,5,1,1,0,1,0,1,0,0,0,0,1,43616.0
4.0,7.0,7.0,4.0,4.0,1.0,3,0.0,6,0,1,1,1,0,1,0,0,0,1,1,44037.0
6.0,10.0,6.0,6.0,5.0,1.0,7,9.0,3,1,0,0,0,0,0,1,0,0,0,1,51018.0
12.0,14.0,15.0,5.0,3.0,0.0,6,0.0,7,0,1,0,1,1,0,0,1,0,0,1,24918.0
2.0,3.0,10.0,5.0,7.0,2.0,6,10.0,1,1,0,0,0,0,0,0,0,0,0,1,24780.0
9.0,20.0,9.0,6.0,6.0,0.0,3,0.0,4,0,0,1,1,0,0,0,0,0,0,1,85925.0
18.0,18.0,10.0,6.0,4.0,0.0,6,10.0,7,1,1,1,1,0,0,0,1,0,0,1,61145.0
10.0,11.0,10.0,5.0,3.0,1.0,10,7.0,2,0,0,0,0,0,0,0,0,0,0,1,114000.0
35.0,43.0,10.0,3.0,5.0,0.0,10,8.0,5,0,1,0,1,1,0,0,0,0,0,1,105040.0
18.0,23.0,10.0,6.0,9.0,2.0,10,6.0,5,1,1,0,0,1,1,0,0,0,0,1,190000.0
24.0,32.0,10.0,5.0,1.0,1.0,2,0.0,9,0,1,1,1,0,0,1,1,0,1,0,80555.0
12.0,15.0,10.0,6.0,4.0,1.0,3,7.0,3,0,0,0,1,1,0,0,0,0,0,1,77332.0
10.0,13.0,2.0,5.0,4.0,2.0,3,10.0,3,1,0,0,0,0,0,1,0,0,1,0,10741.0
17.0,26.0,12.0,7.0,5.0,2.0,6,10.0,2,1,0,0,0,0,1,0,0,0,0,1,16183.0
5.0,6.0,9.0,5.0,5.0,1.0,6,5.0,1,0,0,0,0,0,1,0,0,0,0,1,41828.0
3.0,5.0,10.0,6.0,7.0,0.0,8,10.0,1,0,0,0,1,0,0,0,0,0,0,1,37026.0
8.0,10.0,8.0,5.0,2.0,1.0,10,1.0,2,0,0,0,0,0,0,0,0,1,0,1,160000.0
4.0,6.0,12.0,5.0,5.0,1.0,6,5.0,2,1,0,0,0,0,0,0,0,1,0,1,64341.0
16.0,25.0,16.0,6.0,4.0,0.0,2,0.0,11,1,1,1,1,1,0,0,1,0,0,1,64444.0
2.0,2.0,10.0,5.0,7.0,2.0,0,6.0,4,0,0,0,1,0,1,0,0,0,0,1,37297.0
0.0,3.0,0.0,5.0,4.0,0.0,10,9.0,8,1,1,0,0,0,1,1,0,0,0,1,58000.0
9.0,14.0,9.0,5.0,8.0,1.0,10,0.0,6,0,1,1,1,0,1,0,0,0,0,1,138000.0
3.0,9.0,3.0,6.0,2.0,1.0,6,1.0,5,1,0,0,1,0,1,0,0,0,1,1,32222.0
45.0,51.0,50.0,5.0,5.0,0.0,10,10.0,6,1,0,0,0,0,1,0,0,0,0,1,150000.0
22.0,26.0,10.0,5.0,8.0,0.0,10,8.0,8,1,1,0,1,0,1,0,1,0,0,1,120000.0
10.0,18.0,13.0,6.0,9.0,1.0,6,1.0,4,0,1,1,1,0,1,0,0,0,0,1,70656.0
4.0,10.0,10.0,6.0,5.0,2.0,2,0.0,5,1,1,0,1,0,0,0,1,0,0,1,34800.0
33.0,42.0,10.0,7.0,8.0,2.0,3,10.0,4,1,0,0,1,0,0,0,0,0,0,1,80555.0
9.0,10.0,15.0,5.0,5.0,0.0,10,0.0,4,1,1,1,0,0,0,0,0,0,0,1,190000.0
9.0,12.0,9.0,5.0,2.0,0.0,6,0.0,5,1,1,1,1,0,0,0,0,0,0,1,150369.0
11.0,38.0,10.0,1.0,1.0,0.0,9,8.0,8,0,1,0,1,0,0,0,1,0,0,0,76433.0
9.0,10.0,9.0,3.0,5.0,0.0,6,1.0,6,0,1,1,1,1,0,0,0,0,0,0,80426.0
3.0,4.0,10.0,3.0,3.0,2.0,6,0.0,3,1,1,0,0,0,0,0,0,0,0,1,22555.0
3.0,5.0,10.0,5.0,9.0,1.0,9,10.0,2,1,0,0,1,0,0,0,0,0,0,1,59872.0
2.0,3.0,10.0,5.0,3.0,2.0,2,0.0,5,1,1,1,0,0,0,1,0,0,0,1,42962.0
4.0,8.0,10.0,5.0,4.0,0.0,10,10.0,9,1,1,1,0,1,0,1,0,1,1,1,240000.0
2.0,5.0,10.0,5.0,8.0,1.0,6,10.0,9,1,1,1,1,1,1,0,0,0,0,0,38666.0
7.0,11.0,7.0,6.0,8.0,0.0,4,10.0,4,1,1,1,0,0,0,0,0,0,0,1,29909.0
0.0,10.0,0.0,2.0,9.0,1.0,6,9.0,16,1,1,1,0,1,0,1,0,1,1,0,38996.0
2.0,11.0,10.0,7.0,4.0,2.0,10,10.0,4,1,0,0,0,0,0,1,0,0,0,1,130000.0
9.0,15.0,10.0,5.0,4.0,0.0,6,6.0,3,1,0,0,1,0,0,0,0,0,0,1,70738.0
7.0,10.0,7.0,5.0,6.0,0.0,1,0.0,4,0,0,1,1,0,1,0,0,0,0,1,58154.0
5.0,12.0,10.0,6.0,3.0,1.0,2,4.0,5,1,1,1,1,0,0,0,0,1,0,1,83809.0
13.0,16.0,16.0,2.0,5.0,1.0,3,0.0,3,0,1,0,0,0,1,0,0,0,0,1,63047.0
11.0,15.0,11.0,5.0,7.0,0.0,6,2.0,4,0,1,1,0,0,0,0,1,0,0,1,135517.0
13.0,15.0,15.0,6.0,8.0,2.0,10,10.0,3,1,0,0,0,0,0,1,0,0,0,1,150000.0
9.0,13.0,9.0,5.0,7.0,1.0,10,2.0,3,0,1,1,0,0,0,0,0,0,0,1,132000.0
6.0,10.0,5.0,5.0,4.0,1.0,8,1.0,10,0,1,1,1,1,0,0,0,0,0,1,44702.0
25.0,27.0,25.0,6.0,7.0,1.0,2,10.0,7,1,1,1,1,0,0,0,0,1,0,1,75184.0
9.0,11.0,9.0,3.0,7.0,1.0,6,1.0,7,0,1,0,1,1,1,0,0,0,0,0,65152.0
6.0,10.0,6.0,5.0,7.0,0.0,6,2.0,4,0,1,1,0,0,0,0,0,0,0,1,102036.0
15.0,20.0,15.0,7.0,8.0,1.0,3,9.0,2,0,1,1,0,0,0,0,0,0,0,1,107406.0
9.0,13.0,10.0,5.0,9.0,0.0,10,6.0,3,0,0,1,0,0,1,0,0,0,0,1,180000.0
5.0,6.0,6.0,6.0,9.0,1.0,3,0.0,5,1,1,0,0,0,1,0,0,0,0,1,75184.0
9.0,12.0,10.0,6.0,5.0,0.0,6,10.0,4,0,1,1,1,0,0,0,0,0,0,1,83000.0
3.0,7.0,3.0,5.0,5.0,2.0,6,0.0,5,1,1,1,0,1,0,0,0,0,0,1,49379.0
15.0,20.0,15.0,6.0,7.0,1.0,6,6.0,7,1,0,0,0,1,0,1,0,0,1,1,139271.0
2.0,4.0,10.0,3.0,7.0,2.0,6,10.0,12,1,1,1,1,1,1,1,0,0,1,1,43604.0
4.0,8.0,5.0,6.0,5.0,1.0,6,0.0,12,1,1,1,1,1,0,1,1,0,0,1,12510.0
20.0,35.0,20.0,7.0,7.0,2.0,10,10.0,4,1,0,0,0,0,0,0,0,0,1,1,112000.0
19.0,26.0,19.0,3.0,8.0,0.0,9,0.0,8,1,1,1,1,0,0,0,1,1,1,1,70063.0
24.0,34.0,25.0,5.0,9.0,0.0,10,4.0,3,0,1,0,1,0,0,0,0,0,0,1,150000.0
7.0,11.0,8.0,6.0,6.0,0.0,6,1.0,4,0,0,0,0,1,0,0,1,1,1,1,37120.0
4.0,8.0,4.0,5.0,5.0,0.0,10,0.0,0,0,0,0,0,0,0,0,0,0,0,1,124500.0
10.0,15.0,10.0,6.0,2.0,0.0,6,2.0,5,0,1,1,1,0,0,0,0,0,0,1,53703.0
17.0,21.0,10.0,5.0,5.0,1.0,3,6.0,3,1,0,0,0,0,0,0,0,0,1,1,128887.0
12.0,12.0,12.0,5.0,5.0,0.0,10,2.0,3,0,1,1,0,0,0,0,0,0,0,1,180000.0
6.0,15.0,10.0,5.0,6.0,1.0,10,0.0,5,1,1,1,1,0,0,0,0,0,0,1,230000.0
2.0,4.0,10.0,6.0,6.0,2.0,8,10.0,2,1,0,0,0,0,0,0,0,0,1,1,17279.0
15.0,17.0,17.0,5.0,7.0,1.0,6,1.0,3,1,0,0,0,0,1,0,0,0,0,1,129602.0
7.0,10.0,7.0,5.0,7.0,2.0,6,0.0,8,0,1,0,1,0,1,0,0,0,0,1,60165.0
26.0,40.0,36.0,5.0,4.0,0.0,10,0.0,4,0,1,0,1,0,1,0,0,0,0,1,138000.0
10.0,18.0,10.0,5.0,5.0,1.0,3,0.0,4,0,1,1,1,0,0,0,1,0,0,1,70029.0
20.0,30.0,20.0,6.0,4.0,1.0,6,0.0,6,1,1,1,0,0,0,0,0,0,0,1,91569.0
5.0,11.0,2.0,7.0,4.0,0.0,0,10.0,5,1,1,0,0,1,0,0,0,0,0,1,40001.0
4.0,4.0,4.0,5.0,3.0,0.0,4,0.0,4,1,1,1,0,0,0,0,0,0,0,1,23927.0
5.0,12.0,5.0,2.0,8.0,0.0,10,8.0,4,1,1,0,1,0,0,0,0,0,0,1,165000.0
14.0,27.0,15.0,6.0,7.0,2.0,2,1.0,5,1,1,1,1,1,0,0,0,0,0,1,42962.0
2.0,10.0,2.0,5.0,9.0,1.0,9,8.0,7,1,1,0,1,0,1,0,0,0,0,1,50955.0
4.0,7.0,10.0,5.0,4.0,1.0,6,0.0,4,0,0,0,1,0,1,0,0,0,0,1,84099.0
20.0,23.0,23.0,6.0,5.0,2.0,6,0.0,10,1,1,1,1,0,1,0,0,0,0,1,52022.0
3.0,9.0,10.0,5.0,9.0,2.0,10,1.0,17,1,1,1,0,1,1,1,1,1,0,1,100000.0
12.0,34.0,17.0,5.0,5.0,0.0,9,1.0,4,0,0,0,0,1,0,0,0,0,1,1,146496.0
0.0,10.0,1.0,5.0,5.0,2.0,10,10.0,5,1,0,0,0,0,0,0,0,0,1,1,60000.0
12.0,15.0,10.0,5.0,4.0,0.0,6,1.0,5,0,1,0,1,0,0,0,0,0,0,1,70000.0
5.0,3.0,3.0,2.0,7.0,2.0,6,8.0,7,0,1,1,0,0,1,0,0,0,1,0,16713.0
36.0,43.0,40.0,6.0,2.0,0.0,10,0.0,4,0,1,1,0,0,1,0,0,0,0,1,150000.0
3.0,7.0,3.0,4.0,5.0,2.0,10,0.0,14,1,1,1,1,1,1,0,1,0,0,1,60000.0
19.0,25.0,10.0,5.0,3.0,2.0,6,10.0,5,1,1,0,1,0,0,0,0,0,0,1,10243.0
5.0,9.0,5.0,5.0,9.0,2.0,10,0.0,2,0,0,0,0,0,1,0,0,0,0,1,131000.0
7.0,9.0,7.0,3.0,7.0,0.0,10,0.0,10,1,1,1,1,0,1,0,0,1,1,0,145000.0
12.0,15.0,15.0,5.0,4.0,1.0,10,0.0,7,0,1,1,1,1,1,0,1,0,0,1,85000.0
8.0,9.0,8.0,7.0,9.0,0.0,6,3.0,2,1,0,0,0,0,0,1,0,0,0,1,34958.0
4.0,9.0,10.0,6.0,3.0,2.0,6,8.0,5,1,0,0,0,0,0,1,0,0,1,1,54047.0
17.0,28.0,10.0,6.0,9.0,0.0,10,6.0,7,1,0,0,0,0,0,0,0,1,1,1,280000.0
32.0,38.0,10.0,6.0,4.0,1.0,6,8.0,2,0,0,0,1,0,0,0,0,0,0,1,167125.0
20.0,37.0,20.0,5.0,4.0,1.0,9,1.0,6,0,1,1,0,0,0,0,1,0,1,1,101910.0
7.0,8.0,18.0,5.0,4.0,0.0,6,0.0,7,0,1,1,1,0,1,0,0,1,0,1,80488.0
2.0,6.0,2.0,5.0,9.0,1.0,6,1.0,5,1,1,0,0,1,0,0,0,0,0,1,75184.0
2.0,10.0,3.0,5.0,4.0,1.0,9,7.0,4,0,0,0,0,0,0,0,0,0,0,1,47770.0
24.0,25.0,24.0,6.0,8.0,2.0,6,1.0,2,0,0,1,0,0,0,0,0,0,0,1,132223.0
12.0,2.0,12.0,3.0,4.0,0.0,6,0.0,5,0,1,1,1,1,0,0,0,1,0,1,27461.0
25.0,30.0,25.0,6.0,7.0,1.0,9,10.0,5,1,0,0,1,0,0,0,0,0,0,1,98089.0
3.0,8.0,10.0,5.0,4.0,2.0,6,0.0,7,1,1,1,1,1,0,0,0,0,0,1,37500.0
12.0,18.0,12.0,5.0,5.0,0.0,6,0.0,3,0,1,1,0,0,0,0,0,0,0,1,107937.0
26.0,28.0,46.0,3.0,9.0,0.0,10,4.0,8,1,1,0,1,1,0,0,0,0,0,1,92000.0
10.0,40.0,15.0,3.0,6.0,1.0,1,0.0,6,0,1,0,1,0,1,0,1,0,0,1,66877.0
20.0,25.0,28.0,4.0,7.0,0.0,5,2.0,3,0,1,1,0,0,0,0,0,0,0,0,214812.0
9.0,10.0,9.0,5.0,5.0,1.0,6,1.0,1,0,0,0,0,1,0,0,0,0,0,1,53703.0
1.0,8.0,1.0,5.0,7.0,1.0,6,8.0,11,1,1,1,1,1,1,0,0,0,1,1,16305.0
6.0,8.0,6.0,5.0,6.0,0.0,6,10.0,2,1,0,0,0,0,0,0,0,0,0,1,46185.0
10.0,14.0,10.0,6.0,5.0,1.0,6,7.0,4,0,0,0,0,0,0,1,0,0,0,1,57334.0
37.0,42.0,40.0,5.0,9.0,0.0,6,5.0,4,0,1,0,1,1,0,0,0,0,0,0,150000.0
4.0,12.0,10.0,3.0,3.0,2.0,5,1.0,5,0,1,1,0,0,0,0,1,0,0,1,32222.0
14.0,19.0,10.0,5.0,1.0,1.0,6,1.0,4,0,1,0,1,1,0,0,0,0,0,0,128887.0
16.0,19.0,10.0,5.0,7.0,0.0,6,0.0,5,1,1,1,0,0,1,0,0,0,0,1,122913.0
10.0,16.0,10.0,6.0,9.0,1.0,6,5.0,3,1,0,0,1,1,0,0,0,0,0,1,163783.0
6.0,20.0,10.0,7.0,5.0,0.0,2,10.0,9,1,1,1,0,1,0,1,0,0,1,1,161109.0
38.0,42.0,38.0,5.0,4.0,1.0,10,10.0,2,1,1,0,0,0,0,0,0,0,0,1,165000.0
10.0,20.0,10.0,5.0,9.0,1.0,6,0.0,5,0,0,1,0,0,1,0,0,0,0,1,110380.0
3.0,8.0,1.0,6.0,5.0,1.0,9,10.0,5,1,0,0,1,0,0,0,0,1,1,1,34395.0
4.0,8.0,10.0,6.0,2.0,1.0,6,0.0,9,0,1,1,1,0,1,1,0,0,1,1,96933.0
14.0,18.0,18.0,3.0,2.0,0.0,1,0.0,3,0,1,0,0,0,0,0,1,0,0,1,112674.0
6.0,9.0,6.0,5.0,7.0,1.0,7,1.0,4,1,0,0,1,1,0,0,0,1,0,1,69814.0
5.0,13.0,5.0,6.0,9.0,1.0,3,4.0,6,1,0,0,1,0,1,1,0,0,0,1,96666.0
6.0,6.0,17.0,3.0,9.0,1.0,9,0.0,4,0,1,1,1,0,0,0,0,0,0,1,305731.0
7.0,12.0,7.0,6.0,5.0,0.0,6,1.0,1,0,0,1,0,0,0,0,0,0,0,0,52122.0
6.0,20.0,6.0,5.0,7.0,0.0,6,1.0,9,0,0,1,1,1,1,1,0,0,1,1,95796.0
15.0,30.0,10.0,7.0,7.0,2.0,6,10.0,7,0,0,0,0,1,0,1,1,0,0,1,85925.0
6.0,15.0,6.0,6.0,4.0,0.0,6,1.0,4,1,0,1,0,0,0,0,0,0,1,0,85925.0
20.0,25.0,25.0,4.0,8.0,0.0,0,0.0,10,0,0,1,1,1,0,1,0,1,1,1,42333.0
8.0,18.0,8.0,6.0,8.0,1.0,3,0.0,11,1,1,1,1,1,0,0,0,1,0,1,75184.0
9.0,14.0,10.0,5.0,9.0,1.0,10,0.0,5,0,1,0,1,0,1,0,0,0,0,1,115500.0
1.0,5.0,1.0,5.0,3.0,1.0,6,10.0,6,1,1,1,0,0,0,0,0,1,0,1,100000.0
2.0,4.0,2.0,6.0,3.0,2.0,2,10.0,4,1,0,0,0,0,1,1,0,0,0,1,30933.0
35.0,40.0,41.0,3.0,5.0,0.0,10,1.0,5,0,0,0,1,0,1,0,0,0,0,1,150000.0
20.0,25.0,10.0,2.0,5.0,0.0,10,5.0,7,1,0,0,1,0,0,1,0,1,1,1,160000.0
10.0,15.0,10.0,6.0,7.0,1.0,6,10.0,7,1,1,1,1,1,0,0,0,0,0,1,64444.0
4.0,10.0,10.0,7.0,5.0,1.0,7,10.0,4,0,0,0,0,0,0,1,0,0,1,1,26852.0
7.0,13.0,7.0,5.0,4.0,2.0,10,0.0,7,0,1,1,1,1,0,0,0,0,0,1,120000.0
7.0,10.0,10.0,6.0,5.0,0.0,8,1.0,2,0,1,0,0,0,1,0,0,0,0,1,71090.0
6.0,14.0,7.0,6.0,4.0,1.0,6,1.0,3,0,0,0,1,0,1,0,0,0,0,1,50621.0
32.0,45.0,39.0,5.0,5.0,0.0,9,0.0,2,0,0,1,0,0,0,0,0,0,0,1,80254.0
10.0,20.0,10.0,3.0,4.0,0.0,10,0.0,6,0,1,0,1,0,0,0,1,0,0,1,106000.0
12.0,16.0,12.0,6.0,4.0,0.0,8,1.0,5,0,1,0,1,0,1,1,0,0,0,1,74052.0
6.0,6.0,6.0,6.0,5.0,1.0,2,1.0,2,0,1,0,0,0,0,0,0,0,1,1,53703.0
15.0,30.0,26.0,5.0,5.0,0.0,10,0.0,8,0,1,0,1,0,1,0,0,1,1,1,155000.0
24.0,26.0,24.0,3.0,5.0,0.0,10,2.0,10,0,1,1,1,0,1,0,0,0,0,1,175000.0
1.0,3.0,2.0,5.0,2.0,0.0,1,8.0,2,0,0,0,1,1,0,0,0,0,0,1,47250.0
12.0,16.0,10.0,3.0,4.0,0.0,6,1.0,6,0,1,1,0,0,0,0,0,1,1,1,157140.0
24.0,28.0,24.0,5.0,4.0,0.0,2,1.0,1,0,0,0,0,0,0,1,0,0,0,1,69814.0
20.0,24.0,22.0,4.0,4.0,1.0,1,6.0,2,0,1,1,0,0,0,0,0,0,0,1,87231.0
45.0,50.0,42.0,5.0,7.0,2.0,10,9.0,8,1,0,0,1,1,1,1,0,0,0,1,145000.0
8.0,9.0,15.0,6.0,4.0,0.0,10,2.0,3,0,1,1,0,0,0,0,0,0,1,1,175000.0
40.0,51.0,50.0,6.0,4.0,1.0,10,0.0,8,1,1,0,1,0,0,0,0,0,0,0,120000.0
12.0,16.0,14.0,3.0,4.0,2.0,6,0.0,3,1,1,0,0,0,0,0,0,0,0,1,45111.0
3.0,5.0,3.0,3.0,4.0,1.0,5,1.0,2,0,0,0,1,0,0,0,0,0,0,1,64444.0
3.0,12.0,10.0,5.0,9.0,1.0,9,1.0,5,0,0,0,1,1,0,0,0,1,0,1,73885.0
5.0,7.0,5.0,5.0,4.0,1.0,3,0.0,1,1,0,0,0,0,0,0,0,0,0,1,75184.0
4.0,10.0,10.0,6.0,6.0,1.0,10,5.0,5,1,0,0,0,0,0,0,0,1,1,1,121000.0
10.0,14.0,10.0,6.0,3.0,0.0,1,0.0,3,0,1,0,0,0,0,0,1,0,0,1,72693.0
3.0,8.0,3.0,6.0,4.0,1.0,2,1.0,12,1,1,1,1,0,0,1,0,1,1,1,43500.0
9.0,25.0,9.0,5.0,9.0,2.0,4,0.0,4,0,1,0,1,1,0,0,0,0,0,1,59817.0
23.0,23.0,23.0,7.0,6.0,1.0,6,10.0,5,1,0,0,0,0,0,1,0,0,0,1,107406.0
3.0,8.0,3.0,5.0,7.0,2.0,6,0.0,2,0,0,0,0,0,1,0,1,0,0,1,12000.0
8.0,12.0,8.0,2.0,7.0,0.0,6,1.0,2,0,0,0,1,0,1,0,0,0,0,1,52122.0
8.0,20.0,10.0,5.0,7.0,2.0,10,0.0,5,0,1,0,1,0,1,0,0,0,0,1,75000.0
12.0,20.0,12.0,5.0,4.0,1.0,10,10.0,6,1,1,0,1,0,1,1,0,0,0,1,135000.0
10.0,14.0,11.0,6.0,4.0,2.0,4,2.0,3,0,0,0,0,0,1,1,0,0,0,1,28712.0
11.0,23.0,11.0,5.0,4.0,0.0,6,0.0,7,0,1,1,1,0,0,0,0,1,0,1,146381.0
5.0,9.0,5.0,6.0,3.0,0.0,8,1.0,4,1,1,0,1,0,0,0,1,0,0,1,23000.0
17.0,21.0,17.0,5.0,5.0,0.0,10,1.0,2,0,1,0,0,0,0,0,0,1,0,1,218000.0
8.0,19.0,8.0,6.0,9.0,1.0,6,3.0,8,1,1,1,1,0,0,0,0,0,1,1,214812.0
4.0,15.0,4.0,6.0,5.0,1.0,6,5.0,7,1,0,0,1,1,0,0,0,0,1,1,61809.0
25.0,30.0,10.0,7.0,8.0,2.0,7,10.0,3,1,0,0,0,0,0,1,0,0,0,1,37592.0
15.0,15.0,15.0,5.0,2.0,2.0,10,0.0,3,0,1,1,0,0,0,0,0,0,0,1,140000.0
9.0,18.0,9.0,5.0,9.0,1.0,10,1.0,4,1,1,0,1,1,0,0,0,0,0,1,170000.0
1.0,7.0,10.0,5.0,4.0,1.0,9,0.0,6,1,1,0,0,1,0,0,1,0,0,1,44586.0
18.0,23.0,18.0,5.0,5.0,0.0,10,0.0,6,0,1,1,1,0,1,0,0,0,0,1,130000.0
8.0,10.0,8.0,6.0,6.0,0.0,8,3.0,2,1,0,0,1,0,0,0,0,0,0,1,80400.0
5.0,10.0,8.0,6.0,3.0,1.0,2,5.0,1,0,0,0,0,0,0,0,0,0,0,1,48333.0
0.0,4.0,1.0,6.0,5.0,1.0,3,1.0,7,1,1,0,0,1,1,0,0,1,0,1,63370.0
6.0,12.0,10.0,6.0,5.0,2.0,6,9.0,3,1,0,0,0,0,0,1,0,0,0,1,51865.0
10.0,15.0,10.0,2.0,4.0,1.0,6,0.0,8,0,1,1,1,0,1,0,0,0,0,1,60781.0
25.0,30.0,10.0,6.0,1.0,2.0,6,0.0,6,0,1,1,1,1,1,0,0,0,0,0,128887.0
32.0,35.0,32.0,6.0,6.0,1.0,10,0.0,9,1,0,1,1,0,0,0,0,0,0,1,165000.0
20.0,30.0,10.0,5.0,1.0,0.0,6,0.0,4,1,1,0,1,0,0,0,0,0,0,0,58286.0
6.0,10.0,6.0,6.0,8.0,1.0,6,1.0,4,0,0,0,0,1,0,0,0,0,0,1,49493.0
24.0,25.0,20.0,3.0,4.0,0.0,0,0.0,3,0,1,0,1,0,0,0,1,0,0,1,48000.0
5.0,10.0,5.0,5.0,8.0,1.0,1,0.0,5,1,1,1,0,1,0,0,0,0,0,1,69058.0
6.0,10.0,10.0,5.0,7.0,0.0,6,1.0,1,1,0,0,0,0,0,0,0,0,0,1,47059.0
20.0,26.0,10.0,5.0,4.0,0.0,10,6.0,7,0,1,1,1,0,1,0,0,0,0,1,225000.0
2.0,5.0,2.0,5.0,6.0,1.0,6,1.0,4,0,0,0,1,1,0,0,1,0,0,1,30074.0
17.0,27.0,17.0,6.0,4.0,0.0,2,1.0,6,1,1,0,1,0,0,0,0,1,0,1,66377.0
26.0,20.0,20.0,5.0,4.0,0.0,10,8.0,7,1,1,1,1,0,1,0,0,0,0,1,120000.0
38.0,40.0,10.0,6.0,4.0,0.0,10,10.0,2,1,0,0,0,0,0,0,0,0,0,1,200000.0
10.0,10.0,14.0,3.0,3.0,0.0,9,0.0,5,0,1,1,1,0,1,0,0,0,0,1,61146.0
10.0,12.0,10.0,6.0,5.0,2.0,6,7.0,2,0,0,0,0,1,0,0,0,0,0,1,16632.0
6.0,10.0,30.0,5.0,7.0,0.0,10,7.0,7,1,0,0,0,0,0,0,0,1,0,1,225000.0
5.0,11.0,10.0,7.0,7.0,1.0,6,10.0,1,0,0,0,0,0,0,0,0,0,0,1,95819.0
8.0,10.0,10.0,3.0,9.0,1.0,10,0.0,5,1,1,1,0,1,0,0,0,0,0,1,175000.0
21.0,30.0,21.0,5.0,6.0,1.0,9,6.0,4,0,1,1,0,0,0,0,0,0,0,1,318470.0
3.0,15.0,15.0,7.0,5.0,1.0,6,10.0,5,1,1,0,0,0,1,0,0,0,0,1,35444.0
3.0,7.0,10.0,5.0,6.0,0.0,6,1.0,10,1,1,1,1,1,0,0,0,0,0,1,36681.0
6.0,8.0,10.0,4.0,7.0,0.0,3,2.0,1,0,0,1,0,0,0,0,0,0,0,1,79481.0
3.0,15.0,22.0,3.0,9.0,0.0,10,0.0,8,0,1,1,1,0,0,0,0,0,0,1,140000.0
20.0,20.0,20.0,3.0,7.0,0.0,10,6.0,6,0,1,1,1,0,0,0,1,0,0,1,225000.0
20.0,25.0,25.0,2.0,4.0,0.0,6,5.0,4,0,1,0,1,0,1,0,1,0,0,1,69814.0
20.0,42.0,20.0,7.0,4.0,0.0,6,0.0,4,1,1,0,1,0,0,0,0,0,0,1,175667.0
5.0,10.0,6.0,2.0,4.0,1.0,6,0.0,6,1,1,0,1,1,0,0,0,0,0,1,30074.0
12.0,18.0,13.0,5.0,5.0,0.0,10,1.0,6,0,1,1,1,1,0,0,0,1,0,1,300000.0
7.0,12.0,10.0,4.0,2.0,2.0,3,7.0,6,1,0,0,1,1,0,0,1,0,0,1,40600.0
18.0,26.0,22.0,5.0,2.0,0.0,10,1.0,6,1,0,1,1,0,1,0,0,0,0,1,200000.0
15.0,21.0,13.0,7.0,5.0,2.0,3,1.0,4,1,1,0,0,1,0,0,0,0,0,1,76258.0
7.0,7.0,10.0,5.0,3.0,1.0,6,0.0,5,1,1,0,1,0,0,0,0,0,0,1,87429.0
0.0,8.0,1.0,5.0,9.0,1.0,10,1.0,5,0,1,0,0,0,0,1,0,0,1,1,87000.0
4.0,9.0,10.0,6.0,8.0,2.0,10,1.0,4,1,0,0,0,0,0,0,0,1,0,1,220000.0
15.0,22.0,10.0,3.0,1.0,0.0,6,0.0,12,1,1,1,1,0,0,0,1,1,0,0,107406.0
3.0,8.0,2.0,5.0,3.0,0.0,6,0.0,5,0,1,1,1,0,0,0,0,1,0,1,18000.0
29.0,29.0,10.0,5.0,1.0,0.0,6,0.0,5,0,1,1,0,0,1,0,0,0,0,0,172802.0
28.0,42.0,30.0,6.0,7.0,0.0,7,10.0,5,1,0,0,0,0,0,0,0,0,1,1,171850.0
7.0,15.0,7.0,6.0,2.0,2.0,6,1.0,7,1,1,1,1,0,1,0,1,0,0,0,85925.0
4.0,10.0,10.0,5.0,7.0,1.0,3,1.0,7,1,0,1,1,1,1,0,0,0,0,1,53703.0
30.0,33.0,30.0,6.0,2.0,0.0,6,0.0,2,0,0,1,0,0,0,0,1,0,0,0,33033.0
10.0,14.0,10.0,6.0,6.0,1.0,9,2.0,5,0,1,1,1,0,1,0,0,0,0,1,127388.0
7.0,9.0,8.0,6.0,2.0,1.0,6,9.0,4,1,0,0,0,1,0,0,0,0,0,1,60147.0
22.0,22.0,23.0,3.0,6.0,0.0,0,0.0,7,0,1,1,1,0,1,0,0,0,0,1,167838.0
7.0,11.0,10.0,6.0,4.0,0.0,1,10.0,5,0,1,0,0,0,1,1,0,0,1,1,500000.0
1.0,3.0,10.0,3.0,1.0,0.0,2,0.0,4,0,1,1,0,0,0,0,1,0,0,0,37592.0
35.0,40.0,10.0,6.0,5.0,1.0,3,10.0,4,1,0,0,0,0,0,1,0,0,0,1,118147.0
38.0,44.0,10.0,5.0,2.0,1.0,6,0.0,4,0,1,1,1,1,0,0,0,0,0,0,200550.0
4.0,8.0,3.0,5.0,4.0,1.0,5,9.0,2,0,0,0,0,0,0,1,0,0,0,1,49192.0
20.0,25.0,25.0,3.0,5.0,0.0,6,0.0,13,1,1,1,1,1,1,0,1,0,0,1,40000.0
2.0,7.0,2.0,5.0,4.0,0.0,8,2.0,4,1,1,1,0,0,0,0,0,0,0,1,15750.0
10.0,12.0,10.0,2.0,9.0,0.0,3,0.0,2,0,1,0,0,1,0,0,0,0,0,1,91295.0
3.0,6.0,3.0,5.0,9.0,1.0,6,8.0,2,0,1,0,0,0,0,0,0,0,0,1,26841.0
16.0,24.0,16.0,6.0,4.0,1.0,3,0.0,4,1,1,0,1,0,0,0,0,0,0,1,96666.0
45.0,45.0,45.0,2.0,9.0,1.0,9,10.0,6,1,0,0,1,1,1,1,0,0,0,1,152865.0
2.0,6.0,10.0,5.0,4.0,2.0,6,0.0,8,1,1,1,1,0,1,1,0,0,0,0,34560.0
18.0,24.0,20.0,5.0,4.0,1.0,6,0.0,5,0,1,0,1,0,1,0,0,0,0,0,83563.0
16.0,22.0,15.0,6.0,2.0,2.0,3,8.0,3,0,0,0,0,0,0,1,0,0,0,1,48977.0
7.0,12.0,7.0,5.0,5.0,1.0,6,0.0,5,0,1,1,1,0,1,0,0,0,0,1,48333.0
9.0,13.0,9.0,6.0,5.0,2.0,4,0.0,4,0,1,0,1,0,1,0,0,0,0,1,23927.0
10.0,12.0,10.0,5.0,5.0,0.0,10,2.0,3,0,1,1,0,0,0,0,0,0,0,1,145000.0
4.0,7.0,3.0,5.0,4.0,1.0,6,4.0,5,1,0,0,1,0,0,0,0,0,0,1,11204.0
13.0,18.0,10.0,6.0,6.0,0.0,6,6.0,3,0,1,0,0,1,0,0,0,0,0,1,80000.0
11.0,19.0,11.0,4.0,5.0,1.0,10,10.0,9,0,1,1,1,0,1,0,0,1,0,1,280000.0
18.0,23.0,10.0,3.0,5.0,1.0,9,0.0,4,0,1,0,1,0,1,0,0,0,0,1,71337.0
15.0,15.0,10.0,6.0,1.0,0.0,6,7.0,5,0,1,0,1,0,1,0,0,0,0,0,54158.0
6.0,17.0,6.0,5.0,9.0,0.0,10,10.0,5,1,1,0,1,0,0,0,0,0,1,1,115000.0
2.0,6.0,10.0,3.0,4.0,2.0,0,10.0,3,1,0,0,1,0,0,0,0,0,0,1,11189.0
41.0,50.0,46.0,5.0,9.0,1.0,9,10.0,3,1,0,0,0,0,0,0,0,0,0,1,92993.0
17.0,26.0,17.0,6.0,5.0,2.0,6,10.0,3,0,0,0,0,1,1,0,0,0,0,1,135715.0
25.0,34.0,10.0,6.0,9.0,0.0,2,8.0,3,0,0,0,1,0,0,0,0,0,0,1,80555.0
13.0,16.0,10.0,6.0,7.0,1.0,6,10.0,6,1,1,1,0,0,0,0,0,1,1,1,330330.0
1.0,4.0,10.0,5.0,6.0,1.0,10,10.0,18,1,1,1,1,1,1,1,0,1,1,1,220000.0
11.0,26.0,15.0,2.0,2.0,0.0,10,0.0,6,0,1,1,0,0,0,0,0,1,1,0,175000.0
18.0,20.0,20.0,5.0,3.0,2.0,6,6.0,6,0,1,1,0,0,0,0,0,1,0,1,139239.0
12.0,15.0,12.0,3.0,3.0,0.0,5,0.0,10,1,1,1,1,0,1,0,1,1,0,1,80735.0
3.0,6.0,10.0,6.0,9.0,1.0,10,4.0,3,1,0,0,1,0,0,0,0,0,0,1,110000.0
6.0,10.0,7.0,6.0,7.0,0.0,6,1.0,4,0,0,0,1,0,1,0,0,0,0,0,150369.0
13.0,16.0,13.0,6.0,7.0,1.0,2,6.0,5,0,1,0,1,1,0,0,0,0,0,1,76258.0
19.0,30.0,19.0,6.0,3.0,0.0,8,1.0,3,0,0,0,0,0,0,1,0,0,0,1,52800.0
14.0,21.0,14.0,5.0,5.0,1.0,7,1.0,2,1,0,0,0,0,0,0,0,0,1,1,96666.0
5.0,16.0,10.0,5.0,5.0,1.0,6,0.0,6,0,1,0,1,0,1,0,0,0,0,0,49407.0
20.0,21.0,21.0,6.0,7.0,0.0,8,2.0,3,0,1,1,0,0,0,0,0,0,0,1,60000.0
9.0,12.0,9.0,6.0,4.0,1.0,4,0.0,3,0,1,0,0,0,0,0,1,0,0,1,11963.0
13.0,16.0,15.0,5.0,2.0,0.0,6,0.0,1,0,0,0,0,0,0,0,0,0,1,1,128887.0
10.0,15.0,13.0,6.0,2.0,0.0,1,0.0,5,0,1,1,1,0,0,0,0,0,0,1,87231.0
8.0,12.0,8.0,5.0,2.0,1.0,6,1.0,5,0,1,0,1,0,0,0,0,0,0,1,92185.0
17.0,21.0,18.0,5.0,5.0,2.0,6,0.0,5,0,1,0,1,0,0,0,1,0,0,1,79421.0
26.0,35.0,27.0,6.0,5.0,2.0,10,5.0,8,1,1,0,1,0,0,1,0,0,0,1,160000.0
16.0,20.0,10.0,6.0,9.0,0.0,6,10.0,4,1,0,0,1,0,0,0,0,0,0,1,54351.0
10.0,12.0,10.0,5.0,4.0,0.0,7,8.0,2,0,0,0,0,0,0,0,0,0,0,1,110000.0
7.0,11.0,11.0,6.0,2.0,0.0,6,10.0,3,1,0,0,0,0,0,1,0,1,0,0,26726.0
6.0,9.0,7.0,6.0,9.0,1.0,4,10.0,10,1,1,0,1,1,0,0,0,0,0,1,66995.0
12.0,25.0,12.0,3.0,5.0,2.0,6,7.0,5,0,0,0,0,1,0,1,0,0,0,1,61046.0
6.0,18.0,6.0,6.0,5.0,1.0,6,10.0,8,1,1,1,0,0,0,1,0,1,1,0,133700.0
7.0,15.0,7.0,3.0,4.0,1.0,10,2.0,5,0,1,1,0,0,0,0,0,0,0,1,103000.0
3.0,4.0,10.0,5.0,4.0,0.0,8,3.0,1,1,0,0,0,0,0,0,0,0,0,1,14810.0
9.0,13.0,9.0,5.0,5.0,0.0,6,1.0,2,0,0,0,0,1,0,0,0,0,0,1,125525.0
3.0,4.0,3.0,5.0,4.0,1.0,10,0.0,6,0,1,1,0,1,0,0,1,0,0,1,85000.0
5.0,10.0,10.0,6.0,3.0,2.0,6,10.0,5,1,1,0,0,0,0,1,0,0,0,0,21481.0
8.0,10.0,8.0,4.0,4.0,1.0,2,0.0,4,1,1,0,1,0,0,0,0,0,0,1,60147.0
43.0,45.0,10.0,5.0,4.0,0.0,10,0.0,5,0,1,1,1,0,0,0,1,0,0,1,98000.0
14.0,20.0,10.0,7.0,8.0,1.0,6,10.0,4,1,0,0,0,1,0,0,0,0,1,1,55323.0
5.0,10.0,10.0,5.0,4.0,2.0,10,5.0,6,1,1,1,0,1,1,0,0,0,0,1,70000.0
7.0,11.0,10.0,6.0,9.0,0.0,8,0.0,4,0,0,1,1,0,1,0,1,0,0,1,36000.0
5.0,11.0,5.0,5.0,7.0,0.0,9,2.0,7,0,1,1,1,1,0,0,0,0,0,1,104458.0
11.0,19.0,12.0,2.0,5.0,2.0,3,10.0,6,1,1,0,1,0,0,0,1,0,0,1,71962.0
10.0,15.0,10.0,6.0,6.0,1.0,6,0.0,1,0,0,0,0,0,1,0,0,0,0,1,102950.0
5.0,12.0,5.0,6.0,9.0,1.0,6,10.0,4,1,0,0,0,0,0,1,0,0,0,1,34370.0
11.0,18.0,14.0,6.0,4.0,1.0,6,1.0,6,0,1,1,1,0,1,0,0,0,0,1,93591.0
20.0,26.0,20.0,5.0,4.0,1.0,9,1.0,6,1,0,0,1,1,0,0,0,1,0,0,127388.0
5.0,10.0,10.0,6.0,7.0,1.0,2,1.0,6,0,0,0,1,1,0,0,0,0,0,1,53703.0
4.0,9.0,4.0,3.0,4.0,2.0,6,0.0,7,1,1,1,1,1,1,0,0,0,0,0,33296.0
9.0,17.0,6.0,6.0,5.0,1.0,0,10.0,2,1,0,0,0,0,0,0,0,0,0,1,44757.0
16.0,20.0,16.0,5.0,3.0,0.0,10,0.0,8,1,1,0,1,0,0,0,0,0,0,1,111000.0
6.0,8.0,10.0,6.0,5.0,2.0,2,0.0,6,1,1,1,1,1,0,0,0,0,0,1,59073.0
9.0,12.0,9.0,7.0,5.0,1.0,6,3.0,1,1,0,0,0,0,0,0,0,0,0,1,115778.0
20.0,35.0,25.0,5.0,4.0,1.0,5,10.0,3,0,1,1,0,0,0,0,0,0,0,1,77332.0
15.0,22.0,10.0,5.0,3.0,0.0,3,1.0,6,0,1,0,0,0,0,0,0,0,0,1,92369.0
6.0,7.0,6.0,4.0,4.0,2.0,6,0.0,3,0,1,1,0,0,0,0,1,0,0,1,42473.0
18.0,34.0,18.0,7.0,8.0,1.0,6,10.0,5,1,0,0,1,0,0,1,0,0,0,1,46910.0
3.0,10.0,10.0,5.0,7.0,2.0,6,0.0,9,1,1,0,1,0,0,0,1,0,0,1,147831.0
7.0,9.0,7.0,5.0,9.0,0.0,6,0.0,3,1,0,0,0,0,0,0,0,0,0,1,145345.0
3.0,4.0,10.0,5.0,1.0,0.0,6,10.0,8,1,1,1,1,0,1,0,0,1,0,0,30884.0
5.0,5.0,5.0,2.0,4.0,0.0,1,6.0,6,1,1,0,1,0,0,0,0,0,0,1,94501.0
6.0,6.0,10.0,3.0,4.0,1.0,6,4.0,2,1,0,0,1,0,0,0,0,0,0,1,49493.0
5.0,17.0,14.0,5.0,5.0,2.0,10,0.0,5,0,1,0,1,0,1,0,0,0,0,1,69423.0
6.0,10.0,10.0,6.0,4.0,1.0,3,10.0,3,1,0,0,0,0,0,0,0,0,0,1,53703.0
30.0,35.0,10.0,6.0,1.0,0.0,1,10.0,7,1,1,1,0,0,0,0,1,1,0,0,145386.0
5.0,9.0,9.0,3.0,4.0,2.0,6,10.0,5,1,1,0,1,0,0,0,0,0,0,1,23704.0
10.0,15.0,11.0,6.0,8.0,1.0,1,1.0,5,0,1,1,1,1,0,0,0,0,0,1,130847.0
4.0,8.0,10.0,5.0,9.0,2.0,10,5.0,4,1,0,0,1,0,0,0,0,1,0,1,112000.0
34.0,40.0,10.0,6.0,2.0,1.0,6,0.0,1,0,0,0,0,0,1,0,0,0,0,1,59073.0
14.0,14.0,25.0,6.0,5.0,1.0,6,9.0,6,0,1,1,1,0,1,1,0,0,0,1,75184.0
3.0,10.0,15.0,5.0,6.0,2.0,10,0.0,6,0,1,0,1,0,1,0,0,0,0,1,80000.0
2.0,8.0,2.0,6.0,4.0,2.0,6,10.0,4,1,1,0,0,0,0,0,0,0,0,1,51555.0
30.0,37.0,10.0,7.0,1.0,0.0,2,1.0,6,1,1,1,1,1,0,0,0,0,0,0,59073.0
23.0,20.0,10.0,2.0,5.0,1.0,6,0.0,6,0,1,0,1,0,1,0,1,0,0,1,26852.0
11.0,14.0,11.0,2.0,2.0,0.0,6,0.0,1,1,0,0,0,0,0,0,0,0,0,1,56156.0
6.0,8.0,6.0,5.0,6.0,0.0,8,1.0,5,1,0,0,0,0,0,0,1,1,0,1,23697.0
10.0,15.0,11.0,6.0,4.0,0.0,6,0.0,3,1,1,0,0,0,1,0,0,0,0,1,104244.0
14.0,19.0,10.0,5.0,1.0,0.0,3,1.0,6,0,1,1,1,0,0,0,0,1,0,0,64444.0
8.0,10.0,10.0,5.0,7.0,1.0,3,0.0,4,0,1,0,1,0,0,0,1,0,0,1,64444.0
4.0,4.0,4.0,4.0,9.0,1.0,6,0.0,6,1,1,1,0,0,1,0,0,0,0,1,64444.0
20.0,25.0,26.0,5.0,4.0,2.0,10,0.0,5,0,1,0,1,0,1,0,0,0,0,1,175000.0
6.0,7.0,6.0,5.0,8.0,0.0,6,4.0,4,0,0,0,1,1,0,0,0,0,0,1,79836.0
8.0,12.0,10.0,6.0,5.0,2.0,1,1.0,2,1,0,0,0,1,0,0,0,0,0,1,112674.0
1.0,9.0,1.0,6.0,5.0,1.0,6,1.0,2,0,0,0,0,1,0,1,0,0,0,1,44258.0
11.0,11.0,10.0,5.0,4.0,2.0,6,2.0,4,0,1,1,0,0,0,0,0,0,0,1,134921.0
8.0,12.0,10.0,6.0,8.0,1.0,8,10.0,5,0,1,1,0,0,0,0,0,0,0,1,35545.0
5.0,10.0,5.0,6.0,6.0,1.0,9,0.0,5,0,1,1,1,1,0,0,0,0,0,1,140127.0
8.0,19.0,10.0,5.0,3.0,1.0,5,0.0,3,0,1,1,0,0,1,0,0,0,0,1,48333.0
3.0,10.0,10.0,3.0,2.0,1.0,10,0.0,8,1,0,0,1,0,0,0,1,1,0,1,20000.0
2.0,6.0,10.0,6.0,5.0,1.0,3,10.0,2,1,0,0,1,0,0,0,0,0,0,1,91295.0
3.0,7.0,10.0,5.0,4.0,0.0,6,3.0,6,1,0,0,1,1,0,0,0,1,0,1,24113.0
10.0,14.0,11.0,5.0,9.0,1.0,4,2.0,3,0,1,1,0,0,0,0,0,0,0,1,25434.0
4.0,7.0,10.0,5.0,5.0,1.0,10,0.0,5,0,0,1,1,0,1,0,0,0,0,1,75000.0
0.0,6.0,0.0,4.0,8.0,1.0,2,1.0,8,1,1,0,1,1,0,0,1,0,0,1,25777.0
12.0,15.0,12.0,5.0,5.0,1.0,6,1.0,5,0,1,0,1,0,1,0,0,0,0,1,40094.0
16.0,26.0,16.0,5.0,4.0,1.0,1,6.0,2,0,1,1,0,0,0,0,0,0,0,1,58154.0
28.0,34.0,28.0,1.0,3.0,0.0,6,10.0,5,1,1,0,1,0,0,0,0,0,0,1,91295.0
24.0,29.0,24.0,3.0,6.0,1.0,5,1.0,6,0,1,1,1,0,1,0,0,0,0,1,115999.0
22.0,26.0,22.0,3.0,6.0,0.0,6,1.0,1,0,0,0,0,1,0,0,0,0,0,1,46387.0
8.0,10.0,10.0,6.0,4.0,1.0,7,3.0,2,1,0,0,1,0,0,0,0,0,0,1,67666.0
7.0,8.0,7.0,3.0,3.0,2.0,5,0.0,8,1,1,1,1,0,0,0,1,1,0,1,64444.0
3.0,7.0,3.0,5.0,4.0,0.0,6,5.0,3,1,0,0,0,0,0,0,0,0,0,1,14150.0
17.0,21.0,10.0,6.0,4.0,1.0,9,6.0,7,0,0,1,1,0,1,0,0,0,0,1,108534.0
6.0,8.0,10.0,5.0,4.0,0.0,10,1.0,4,0,1,0,0,0,0,0,0,0,0,1,136000.0
5.0,5.0,5.0,5.0,6.0,1.0,9,0.0,3,0,1,1,0,0,0,0,0,0,0,1,98089.0
19.0,24.0,18.0,5.0,9.0,1.0,4,10.0,1,0,0,0,0,0,1,0,0,0,0,1,65799.0
2.0,5.0,2.0,5.0,4.0,1.0,4,1.0,1,0,0,0,0,0,0,0,0,0,0,1,13160.0
27.0,27.0,27.0,5.0,5.0,0.0,10,0.0,3,0,1,0,0,0,0,0,0,0,0,1,220000.0
24.0,30.0,10.0,2.0,5.0,0.0,6,0.0,4,0,0,1,1,0,1,0,0,0,0,1,53703.0
4.0,9.0,4.0,5.0,3.0,0.0,9,0.0,4,0,1,0,1,0,0,0,0,0,0,1,44586.0
5.0,12.0,10.0,5.0,5.0,1.0,10,1.0,8,1,1,1,1,0,1,0,0,0,1,1,112000.0
6.0,9.0,10.0,7.0,8.0,1.0,10,10.0,6,1,0,0,0,0,0,1,0,0,1,1,120000.0
8.0,11.0,14.0,5.0,7.0,1.0,6,0.0,4,0,1,0,1,0,1,0,0,0,0,1,41192.0
2.0,10.0,2.0,6.0,7.0,1.0,2,9.0,14,1,1,1,0,0,0,1,0,0,1,1,44037.0
10.0,17.0,10.0,5.0,7.0,0.0,6,0.0,7,1,1,1,0,0,0,0,1,0,0,1,11010.0
0.0,11.0,1.0,5.0,8.0,2.0,10,8.0,4,1,1,0,0,0,0,1,0,0,0,1,80000.0
8.0,10.0,10.0,2.0,1.0,0.0,6,0.0,4,0,1,1,1,0,0,0,0,0,0,0,80000.0
2.0,4.0,3.0,5.0,4.0,1.0,6,0.0,7,1,1,0,0,0,0,1,0,0,0,1,15722.0
2.0,4.0,4.0,3.0,9.0,0.0,6,2.0,4,0,1,1,0,0,0,0,0,0,1,1,44370.0
30.0,40.0,10.0,5.0,4.0,2.0,10,1.0,6,1,1,0,1,0,0,0,1,0,0,1,200000.0
16.0,18.0,16.0,5.0,7.0,0.0,6,10.0,5,1,0,0,1,1,0,0,0,0,0,1,80555.0
7.0,9.0,12.0,6.0,4.0,0.0,3,2.0,3,0,1,1,0,0,0,0,0,0,0,0,24703.0
10.0,13.0,10.0,5.0,6.0,2.0,4,8.0,4,0,1,1,0,0,0,0,0,0,0,1,12921.0
20.0,15.0,25.0,2.0,6.0,1.0,3,1.0,8,0,1,0,1,0,1,0,0,0,0,1,75184.0
11.0,30.0,25.0,6.0,4.0,0.0,10,0.0,5,1,1,1,1,0,1,0,0,0,0,1,85000.0
8.0,12.0,8.0,6.0,3.0,0.0,6,0.0,2,1,1,0,0,0,0,0,0,0,0,1,38742.0
1.0,5.0,5.0,3.0,3.0,1.0,10,0.0,6,1,1,0,1,0,1,0,0,0,0,1,53000.0
8.0,12.0,8.0,5.0,8.0,0.0,0,1.0,7,0,1,0,0,0,1,0,0,0,1,1,33568.0
3.0,12.0,3.0,5.0,2.0,0.0,10,0.0,3,0,1,0,0,0,0,0,0,0,0,1,92720.0
12.0,17.0,12.0,3.0,5.0,0.0,6,10.0,4,0,1,1,0,1,0,0,0,0,0,1,100000.0
8.0,13.0,8.0,3.0,7.0,0.0,10,0.0,4,0,1,1,0,0,0,0,0,0,0,1,215000.0
7.0,12.0,10.0,5.0,2.0,0.0,6,8.0,6,1,0,0,1,0,0,1,0,0,0,1,12188.0
10.0,20.0,10.0,5.0,5.0,0.0,10,0.0,6,0,1,1,1,1,0,0,0,1,0,1,177050.0
5.0,6.0,5.0,5.0,3.0,1.0,2,8.0,6,1,1,0,1,1,0,0,0,0,0,1,48333.0
0.0,15.0,1.0,5.0,7.0,2.0,3,9.0,9,1,1,0,0,1,1,1,0,0,1,1,55851.0
5.0,5.0,5.0,6.0,4.0,1.0,6,0.0,5,0,1,1,1,1,0,0,0,0,0,1,14356.0
7.0,10.0,10.0,5.0,5.0,1.0,9,1.0,2,1,0,0,0,0,0,0,0,0,0,1,89172.0
12.0,16.0,13.0,5.0,6.0,0.0,6,1.0,4,0,1,1,1,0,0,0,0,0,0,1,140000.0
0.0,10.0,1.0,6.0,7.0,2.0,4,0.0,5,1,1,1,0,0,0,1,0,0,0,1,15553.0
51.0,51.0,10.0,7.0,3.0,0.0,10,10.0,6,1,0,0,1,0,0,1,0,0,0,0,200000.0
25.0,30.0,10.0,2.0,1.0,0.0,10,0.0,8,1,1,1,1,0,0,0,1,0,1,0,193000.0
9.0,14.0,9.0,6.0,3.0,1.0,6,10.0,4,1,1,1,0,0,0,0,0,0,0,1,78966.0
2.0,15.0,3.0,3.0,5.0,0.0,6,7.0,3,0,1,0,1,0,1,0,0,0,0,1,26852.0
4.0,5.0,4.0,5.0,5.0,1.0,6,10.0,1,0,0,0,0,0,1,0,0,0,0,1,55645.0
10.0,20.0,10.0,7.0,9.0,2.0,3,10.0,6,0,0,0,0,0,0,1,0,0,0,1,171850.0
16.0,20.0,10.0,6.0,1.0,0.0,9,1.0,6,0,0,1,1,1,0,0,0,0,0,0,152865.0
13.0,25.0,13.0,7.0,4.0,1.0,6,0.0,5,0,1,1,0,0,1,0,0,0,0,1,43435.0
4.0,14.0,4.0,7.0,5.0,2.0,3,1.0,1,0,0,0,0,1,0,0,0,0,0,0,80555.0
40.0,51.0,10.0,5.0,1.0,1.0,2,1.0,4,0,0,0,1,0,0,0,0,0,0,0,96666.0
16.0,20.0,10.0,5.0,7.0,1.0,10,6.0,6,0,1,1,1,0,0,0,0,1,0,1,250000.0
10.0,25.0,10.0,2.0,8.0,1.0,3,10.0,5,1,1,0,0,0,0,0,0,0,1,1,139628.0
24.0,46.0,25.0,7.0,6.0,1.0,9,1.0,5,1,0,0,1,1,1,0,0,0,0,1,203821.0
0.0,4.0,10.0,3.0,9.0,2.0,9,0.0,2,1,1,0,0,0,0,0,0,0,0,1,30573.0
8.0,3.0,1.0,3.0,4.0,2.0,1,10.0,1,1,0,0,0,0,0,0,0,0,0,1,18900.0
3.0,5.0,10.0,5.0,7.0,0.0,8,5.0,3,1,0,0,0,0,0,0,0,0,0,1,42749.0
8.0,11.0,8.0,5.0,6.0,0.0,10,1.0,2,0,0,0,1,0,1,0,0,0,0,1,150000.0
8.0,8.0,10.0,7.0,6.0,0.0,6,0.0,14,0,1,1,0,1,1,1,0,1,0,1,25118.0
5.0,14.0,5.0,5.0,4.0,0.0,1,6.0,3,1,0,1,0,0,0,0,0,0,1,1,113401.0
